389459986,2.382939
389464234,3.134031
389468565,3.237963
389472985,3.237157
389477350,3.21057
389525822,1.257963
389530445,1.257963
389535114,1.224074
389539854,1.237821
389544499,1.299052
389549308,1.298247
389554211,1.248295
389559172,1.268437
389564375,1.364312
389569556,1.386065
389574855,1.328862
389628878,1.625402
389634273,1.581895
389639787,1.612511
389645276,1.714882
389650851,1.706825
389656484,1.663319
389662183,1.735024
389706978,1.813175
389712819,1.730996
389718713,1.673793
389724814,1.722939
389730975,1.689906
389777392,1.607677
389811613,1.739858
389849084,1.803506
389931810,1.715688
389969666,1.72455
390007420,1.743886
390049621,1.73583
390092835,1.685878
390127927,1.755166
390166238,1.818009
390203636,1.70602
390241473,1.602037
390279073,1.315972
390318529,2.179858
390354331,1.259574
390392400,1.353838
390429196,1.465878
390466459,1.589146
390504868,1.722939
390584425,1.598814
390625502,1.672181
390662812,1.693129
390702930,1.751943
390740176,1.736635
390781400,1.715688
390818317,1.660902
390853743,1.690712
390893001,1.693934
390934429,1.682655
390974678,1.715688
391011179,1.897015
391050241,1.661707
391090979,1.627013
391129943,3.233129
391170967,1.093555
391257999,1.360284
391299635,1.519858
391340355,1.705214
391381960,1.689101
391422671,1.678627
391462310,1.750332
391501355,1.777725
391543192,1.763223
391583241,1.716493
391624681,1.677821
391664784,1.684266
391706027,1.697963
391746110,1.665736
391787494,1.590758
391831135,1.677821
391875027,1.408624
391957936,3.233934
392002932,1.201515
392044882,1.277299
392086604,1.393317
392130649,1.463461
392173472,1.652039
392216177,1.586729
392260418,1.619762
392306100,1.742275
392350041,1.741469
392393283,1.640709
392435775,1.535972
392480334,1.51583
392526028,1.550474
392578121,1.522275
392624446,1.742275
392715898,1.705214
392761398,3.237157
392806586,1.34981
392857166,1.362701
392900491,1.463461
392944735,1.574644
392991448,1.547251
393035060,1.41507
393078869,1.430378
393122834,1.491659
393166228,1.469906
393211179,1.353838
393256450,1.066162
393301978,0.6720852
393347172,0.2079149
393392522,0.0990982
393481524,0.3634104
393525566,0.3392401
393571755,0.5834104
393620797,0.8977249
393667096,1.190236
393710641,1.359478
393756657,1.548862
393802894,1.683461
393857766,1.708437
393904141,1.913129
393948712,1.966304
393995605,1.847819
394044387,1.906683
394089609,1.911517
394133880,1.893793
394182719,2.058956
394275430,1.741469
394321695,3.095358
394370063,1.509384
394414702,1.574644
394459678,1.831705
394508351,2.127489
394555923,2.071898
394603616,1.842179
394647087,1.892987
394692371,1.923603
394737673,1.975166
394784408,1.98
394831725,1.891376
394879973,1.963886
394927282,1.946967
394978076,2.108153
395066820,1.749526
395113439,3.242797
395162346,1.500522
395214160,1.591563
395261687,1.859149
395313272,2.026729
395360780,1.853458
395411011,1.731801
395456930,1.807535
395503113,1.946967
395551760,1.834928
395599813,1.842179
395652640,1.76
395700897,1.809146
395754819,1.762417
395803810,2.042037
395900573,1.406207
395951269,1.186207
395999799,1.357867
396045284,1.485214
396096864,1.570616
396144501,1.806729
396196993,1.60526
396252902,1.635875
396305243,1.767251
396357196,1.693129
396408068,1.666541
396459015,1.642321
396512077,1.633458
396563261,1.722939
396613782,1.65929
396664182,1.770474
396759672,2.008199
396809856,1.063745
396863250,1.267631
396915310,1.354644
396965760,1.668153
397016108,1.633458
397064100,1.660096
397116904,1.689101
397170168,1.71891
397220049,1.739858
397272597,1.682655
397325567,1.770474
397377714,1.725356
397427688,1.829288
397479879,1.673793
397534105,1.577061
397633384,1.177345
397686718,1.360284
397738834,1.509384
397791586,1.637487
397841313,1.620568
397893994,1.610094
397947694,1.861565
398001873,1.975972
398054367,1.868011
398110903,1.792227
398164331,1.792227
398217712,1.585924
398270949,1.56981
398324723,1.237821
398376090,0.9637903
398432567,0.5415153
398526726,1.168482
398583886,1.459432
398639829,1.539194
398695040,1.531943
398752079,1.603648
398806195,1.690712
398858540,1.660096
398916168,1.729384
398972060,1.793838
399027696,2.062179
399112615,1.619762
399149379,3.23474
399183086,1.211989
399214809,1.202321
399245805,1.393317
399282504,1.561753
399370876,1.831705
399406356,1.856732
399442705,1.820426
399478547,1.793838
399514346,1.822037
399550160,1.814786
399592164,1.736635
399631448,1.767251
399664656,1.821231
399699235,1.772891
399734793,1.748721
399769054,1.921186
399804856,1.701991
399842293,1.66493
399877611,1.440046
399913708,2.283841
399990327,1.354644
400026326,1.555308
400061950,1.658485
400098297,1.706825
400136537,1.639098
400173276,1.568199
400211601,1.596397
400246210,1.711659
400285577,1.747109
400320647,1.693129
400354060,1.59398
400389063,1.657679
400429008,1.683461
400466902,1.704408
400501737,1.841373
400536672,1.757583
400621917,1.430378
400658552,2.77621
400698248,1.286162
400738609,1.369952
400779440,1.523886
400817970,1.653651
400855537,1.81398
400894046,1.714882
400931092,1.661707
400969824,1.72455
401009138,1.800284
401046742,1.787393
401085718,1.76
401123439,1.800284
401163741,1.815592
401199691,1.826066
401283050,1.892181
401322233,1.689101
401364337,1.476351
401404362,2.631943
401448519,1.401373
401487835,1.496493
401527426,1.631041
401567812,1.715688
401608465,1.787393
401649088,1.608482
401691251,1.557725
401736141,1.531138
401779348,1.582701
401819234,1.661707
401859808,1.718105
401902457,1.689906
401994288,1.485214
402044930,1.699574
402091474,1.429572
402133406,1.399762
402178053,3.235546
402221327,1.336919
402267260,1.382037
402310314,1.485214
402352284,1.597203
402397071,1.685072
402439384,1.706825
402481634,1.801895
402524085,1.863177
402566637,1.856732
402607927,1.840568
402652989,1.818814
402737925,1.799478
402783171,1.802701
402826981,1.845402
402871363,1.609288
402914636,1.523886
402958265,3.200096
403004767,1.261186
403047456,1.263603
403090477,1.381231
403135724,1.573838
403180574,1.81398
403232452,1.568199
403276620,1.598814
403319782,1.729384
403365647,1.756777
403410426,1.708437
403502093,1.736635
403544565,1.680238
403589659,1.627013
403632849,1.693129
403676660,1.711659
403722662,1.729384
403768351,3.162229
403810392,1.016159
403858296,1.32564
403904070,1.508579
403947827,1.660096
403990753,1.776114
404034782,1.686683
404079941,1.740664
404122505,1.758389
404166027,1.675404
404251600,1.531138
404299275,1.563365
404347785,1.535166
404392623,1.660902
404437471,1.540806
404483491,1.496493
404535477,1.873651
404581072,1.238627
404633863,1.224074
404680874,1.37398
404728182,1.465072
404774736,1.412653
404817822,1.484408
404863535,1.563365
404909083,1.498105
404959872,1.53436
405054982,1.353033
405107111,1.255546
405154858,1.058105
405201177,1.1709
405250173,0.6366354
405297491,1.144312
405342679,1.309526
405391976,1.32
405439499,1.518247
405486793,1.571421
405538171,1.689906
405587267,1.773697
405635626,1.847819
405683229,1.814786
405732692,1.66493
405784720,1.960664
405877196,1.747109
405927946,2.737537
405975981,1.267631
406030068,1.514218
406076723,1.763223
406129839,2.056539
406179320,1.921991
406228392,1.824454
406278867,1.982417
406325949,1.977583
406377217,1.859954
406427270,1.759194
406475125,1.735024
406526663,1.827677
406576861,1.810758
406626170,2.017061
406722179,1.627819
406774232,1.532749
406826610,1.400568
406877785,1.542417
406928945,1.665736
406979019,1.88493
407029540,1.715688
407078564,1.788199
407129267,1.760806
407180815,1.867205
407231160,1.693934
407282018,1.764028
407335526,1.734219
407386951,1.768862
407440190,1.799478
407491431,1.854264
407584979,1.461849
407635759,1.109668
407690066,1.265214
407741268,1.554502
407796140,1.770474
407850076,1.837345
407903188,1.709242
407958517,1.751138
408010687,1.751943
408061136,1.818009
408115892,1.712465
408167049,1.733413
408220746,1.757583
408276239,1.684266
408329825,1.687489
408383020,1.76
408482034,2.751234
408533167,1.218434
408588821,1.272465
408642668,1.53436
408697189,1.715688
408749672,1.631847
408805811,1.701991
408858197,1.801089
408918121,1.764834
408976943,1.671376
409028640,1.606065
409081619,1.706825
409135621,1.650428
409190129,1.691517
409244301,1.677821
409300094,1.577867
409394135,1.164454
409447628,1.282939
409531646,1.556919
409565191,1.706825
409599493,1.638292
409635441,1.597203
409670764,1.582701
409709090,1.630236
409744103,1.73019
409780397,1.761611
409813179,1.685878
409847043,1.704408
409881671,1.755166
409920729,1.780142
409954287,1.741469
409988816,1.72455
410070574,1.562559
410108374,1.561753
410142856,1.735024
410178533,1.484408
410214884,1.202321
410252078,1.263603
410288278,1.382037
410325424,1.557725
410361706,1.735024
410398389,1.773697
410434960,1.660902
410473665,1.667347
410508815,1.739858
410543822,1.82526
410579614,1.782559
410618165,1.732607
410694007,1.63507
410731913,1.598814
410768533,1.609288
410808549,1.608482
410845140,1.814786
410888066,1.506967
410925500,1.556919
410962407,2.043648
411001776,1.062133
411039942,1.261186
411077966,1.33128
411117765,1.455404
411159034,1.632653
411198468,1.770474
411237441,1.70038
411275471,1.677015
411363534,1.771279
411404648,1.695546
411453598,1.635875
411497756,1.678627
411537161,1.683461
411577808,1.672181
411619942,1.770474
411665655,1.664124
411705966,1.577061
411746038,1.362701
411787827,1.362701
411828131,1.215212
411868012,1.282939
411906918,1.428766
411948838,1.54564
411987005,1.699574
412071861,1.606871
412111674,1.646349
412155983,1.727773
412196825,1.722939
412238861,1.728579
412279965,1.751943
412323112,1.767251
412369863,1.695546
412411626,1.875262
412452381,1.556919
412494917,1.613317
412538090,3.239574
412586859,1.328057
412628081,1.358672
412668733,1.495688
412711007,1.627819
412802022,1.757583
412842490,1.772891
412882023,1.834122
412924032,1.845402
412965396,1.776919
413006196,1.732607
413049494,1.672987
413089680,1.67057
413131082,1.668153
413177725,1.915546
413220962,1.642321
413262072,1.63507
413302510,3.237963
413344853,1.192653
413386406,1.292607
413426174,1.425544
413511111,1.72455
413556660,1.767251
413600796,1.697963
413648463,1.658485
413692544,1.692323
413736921,1.747109
413779254,1.710854
413827551,1.612511
413869677,1.594786
413918843,1.81962
413964185,1.576255
414010480,1.519052
414051380,3.239574
414093685,1.149952
414137225,1.302275
414179967,1.444124
414273669,1.67057
414318840,1.67621
414370657,1.636681
414416096,1.749526
414461116,1.794644
414506893,1.692323
414553711,1.706825
414595980,1.732607
414645283,1.805923
414688888,1.714882
414735094,1.624596
414786412,2.370048
414834233,1.150758
414880720,1.361089
414925319,1.430378
414972778,1.582701
415063749,1.677015
415109662,1.615734
415157396,1.76
415205003,1.719716
415257252,1.714882
415303533,1.727773
415353552,1.693934
415399886,1.864788
415443843,1.76564
415492796,1.537583
415538654,2.334598
415587061,1.042797
415634886,1.262797
415681254,1.446541
415731813,1.547251
415780205,1.714076
415877603,1.764834
415922731,1.818814
415970585,1.708437
416020559,1.728579
416068927,1.642321
416117619,1.735024
416163053,1.739052
416211356,1.794644
416258207,1.66493
416306520,1.518247
416355569,1.05891
416405242,1.261186
416453472,1.387677
416504334,1.602843
416553155,1.701991
416603744,1.639904
416692549,1.689906
416740744,1.777725
416788190,1.672181
416838427,1.751943
416885875,1.666541
416938118,1.728579
416988491,1.677821
417041086,1.643127
417094107,1.527915
417144200,2.632749
417192246,1.173316
417245880,1.316777
417297678,1.539194
417350979,1.639098
417404307,1.662513
417457234,1.705214
417556147,1.72455
417604029,1.714076
417657157,1.747109
417713029,1.631041
417764776,1.645544
417815976,1.710048
417868146,1.673793
417920371,1.644738
417972668,3.237963
418031575,1.15398
418087097,1.313555
418136467,1.521469
418186999,1.638292
418238805,1.667347
418291087,1.614122
418343199,1.757583
418436539,1.743886
418486661,1.684266
418538328,1.738247
418591555,1.689101
418644305,1.705214
418697105,1.910712
418752074,1.587535
418805932,2.703699
418861083,1.299858
418912799,1.257157
418968292,1.459432
419021444,1.774502
419073399,1.652039
419128430,1.677821
419186085,1.78417
419238423,1.822037
419337033,1.734219
419389113,1.644738
419443709,1.776114
419495747,1.840568
419550746,1.603648
419605243,1.486825
419663714,1.377203
419718277,1.272465
419773886,1.354644
419828395,1.566587
419880574,1.755166
419965052,1.689101
420004210,1.773697
420038822,1.831705
420073936,1.734219
420110098,1.666541
420185335,1.690712
420221813,1.755166
420258702,1.78417
420297381,1.818814
420334049,1.822037
420373348,1.598814
420409568,1.589952
420443326,2.772181
420478182,1.349004
420514287,1.313555
420550262,1.397345
420587827,1.572227
420627183,1.727773
420665884,1.86076
420700756,1.801089
420735572,1.713271
420820295,1.826066
420859013,1.811563
420904752,1.734219
420946833,1.697157
420982225,1.768057
421019648,1.793033
421057366,1.798673
421098801,1.953413
421137248,1.731801
421174574,1.63507
421213971,1.522275
421250741,2.21853
421289573,1.138672
421325837,1.236965
421364174,1.384454
421402233,1.560948
421486174,1.612511
421523432,1.616539
421564112,1.645544
421601931,1.710854
421641747,1.702797
421682818,1.692323
421723306,1.686683
421766554,1.644738
421803056,1.681044
421840410,1.779336
421880295,1.736635
421921826,1.610094
421968816,1.657679
422008922,0.9549278
422046284,1.160426
422083321,1.272465
422169240,1.538389
422205809,1.677015
422241645,1.614122
422282335,1.637487
422322386,1.711659
422359169,1.770474
422400062,1.757583
422437803,1.753555
422477013,1.695546
422520071,1.695546
422561011,1.705214
422598919,1.764028
422637988,1.803506
422676886,1.60526
422718352,1.459432
422759069,3.225878
422839337,1.31436
422882606,1.406207
422922877,1.582701
422968250,1.730996
423007942,1.646349
423048114,1.616539
423087288,1.651234
423134416,1.719716
423176079,1.762417
423221761,1.756777
423264705,1.730996
423308715,1.713271
423350586,1.73019
423390841,1.902655
423432611,1.566587
423475698,1.602843
423566746,1.233742
423608185,1.25474
423655263,1.481991
423697255,1.678627
423739558,1.841373
423782599,1.719716
423826034,1.655262
423867269,1.689101
423911600,1.740664
423951898,1.710854
423995758,1.715688
424043779,1.687489
424087470,1.622985
424132287,1.638292
424175949,1.818814
424219633,1.638292
424306786,3.238769
424352561,1.26602
424397685,1.362701
424442847,1.469906
424492188,1.587535
424536791,1.786587
424585126,1.618956
424630459,1.622985
424673179,1.714076
424717514,1.753555
424761344,1.739052
424808286,1.65929
424854940,1.726162
424899994,1.800284
424948219,1.877679
424994257,1.641515
425086665,3.232323
425128775,1.133033
425175741,1.236965
425224768,1.408624
425270365,1.560142
425316995,1.751943
425361273,1.653651
425408247,1.622985
425452675,1.714882
425497916,1.820426
425544664,1.78417
425590474,1.718105
425636071,1.741469
425682090,1.993697
425728775,1.642321
425777054,1.660096
425866110,1.396539
425913053,1.452987
425959212,1.624596
426007375,1.725356
426053047,1.827677
426103678,1.81398
426150202,1.809952
426200187,1.88493
426249776,1.743081
426296199,1.749526
426341680,1.690712
426392753,1.786587
426439782,1.577061
426488723,1.35545
426536966,1.85507
426586653,1.218434
426680866,1.513413
426727302,1.478769
426773231,1.498105
426827382,1.473935
426875603,1.632653
426926549,1.584312
426972996,1.606871
427023291,1.668153
427072124,1.723745
427126572,1.535166
427177871,1.376397
427224720,1.593175
427272876,1.238627
427322612,1.386065
427371069,1.398151
427420316,1.663319
427511420,1.620568
427560833,1.783365
427611134,1.788199
427661447,1.892181
427711776,1.767251
427762283,1.935688
427815379,1.637487
427865933,1.411847
427920321,1.132227
427970787,1.286967
428024120,1.500522
428073426,1.658485
428121045,1.818009
428172086,1.611705
428226440,1.655262
428278560,1.805118
428376167,1.745498
428425231,1.651234
428477628,1.805118
428528331,1.600426
428581866,1.566587
428634331,3.236351
428689292,1.087915
428743409,1.294218
428796703,1.490854
428849367,1.601231
428900608,1.607677
428954632,1.672987
429007223,1.713271
429060293,1.775308
429112846,1.644738
429166399,1.642321
429257203,1.793033
429310143,1.577061
429365221,1.524692
429422155,2.532039
429475805,1.241044
429532136,1.364312
429586964,1.596397
429641949,1.785782
429695289,1.654456
429748710,1.669764
429803190,1.763223
429858127,1.828483
429915808,1.801895
429972608,1.714882
430026813,1.763223
430080790,1.747915
430182812,3.194456
430240001,1.357867
430304986,1.461849
430396972,1.78417
430434771,1.668153
430470143,1.581895
430510615,1.615734
430545801,1.652039
430580933,1.722133
430620050,1.742275
430657126,1.756777
430692599,1.701991
430727498,1.672181
430762708,1.710048
430798603,1.837345
430839078,1.723745
430916082,1.508579
430955878,1.776919
430991847,1.257963
431028592,1.29019
431064869,1.423127
431102260,1.606065
431143987,1.716493
431179982,1.790616
431215636,1.741469
431252559,1.768057
431291420,1.764028
431335531,1.764028
431371570,1.665736
431405219,1.641515
431442653,1.672987
431479546,1.725356
431564432,1.856732
431601903,1.618151
431640112,1.680238
431675439,2.108959
431709464,1.2136
431747713,1.18379
431785828,1.278105
431820354,1.469906
431859862,1.622985
431897008,1.750332
431934319,1.696352
431970768,1.625402
432006484,1.656873
432045205,1.712465
432082247,1.755972
432120417,1.755972
432204431,1.650428
432244852,1.682655
432287463,1.685072
432326616,1.809952
432363954,1.590758
432401526,1.59962
432445915,1.78417
432483339,1.000046
432527771,1.186207
432568011,1.271659
432608318,1.402985
432647970,1.589952
432688633,1.707631
432729138,1.590758
432769785,1.604454
432812317,1.685878
432898686,1.75436
432944597,1.661707
432985778,1.674598
433027327,1.66493
433069053,1.646349
433108316,1.675404
433147596,1.776919
433189804,1.56981
433227915,1.468295
433268337,3.235546
433314996,1.221657
433356975,1.307915
433398398,1.435212
433438966,1.59398
433482021,1.742275
433527006,1.589952
433611600,1.657679
433654565,1.718105
433695520,1.750332
433743812,1.67057
433786281,1.635875
433832652,1.681044
433876660,1.652845
433918831,1.69474
433963727,1.497299
434006815,1.311943
434049247,1.401373
434093110,0.917061
434135508,1.264408
434181154,1.453793
434222545,1.590758
434267198,1.772891
434355411,1.777725
434400190,1.821231
434445425,1.788199
434489306,1.742275
434534061,1.796255
434576562,1.830899
434621850,1.818009
434665611,1.776114
434708133,1.789004
434751378,1.689906
434796059,1.658485
434839197,2.072703
434885207,1.062133
434929062,1.330474
434973837,1.529526
435018763,1.710854
435105690,1.706825
435147944,1.656873
435193815,1.755972
435237233,1.817203
435285126,1.656873
435331372,1.619762
435378994,1.652039
435426177,1.571421
435470448,1.72455
435515120,1.585924
435562417,1.48038
435609133,3.220238
435655992,1.241849
435703108,1.272465
435748603,1.371563
435794866,1.621373
435885132,1.614928
435933418,1.719716
435982315,1.739052
436028263,1.682655
436075463,1.678627
436120648,1.643932
436167996,1.606871
436215279,1.721328
436269029,1.609288
436318817,1.59962
436362591,2.092845
436408696,0.9903776
436454874,1.236965
436502580,1.304692
436551833,1.447347
436598043,1.653651
436686021,1.51583
436733640,1.671376
436781928,1.686683
436828896,1.627013
436876622,1.718105
436925359,1.62943
436972067,1.687489
437023880,1.848624
437072042,1.567393
437122968,1.36834
437169426,0.9259235
437216090,1.257963
437264397,1.298247
437316141,1.546445
437364675,1.641515
437414496,1.665736
437508756,1.737441
437558371,1.796255
437606447,1.660096
437655726,1.753555
437705503,1.652039
437759832,1.809146
437809983,1.622179
437861068,1.616539
437911427,3.238769
437960446,1.290996
438013156,1.429572
438063472,1.577867
438114358,1.827677
438164596,1.701991
438214273,1.805923
438262733,1.863983
438355390,1.769668
438408275,1.631847
438463242,1.710854
438516568,1.992085
438572179,1.684266
438624706,1.428766
438674751,1.191041
438728353,1.360284
438781998,1.577061
438834152,1.790616
438887596,1.753555
438942760,1.679432
438995782,1.816397
439048554,1.793033
439100381,1.800284
439155769,1.804312
439259157,1.852653
439321199,1.620568
439374457,3.223461
439429129,1.228908
439483331,1.442463
439543105,1.661707
439597622,1.844596
439648387,1.674598
439702158,1.706825
439755901,1.798673
439809807,1.695546
439863657,1.660096
439917081,1.75436
439971530,1.868817
440027859,1.544834
440079589,1.394928
440175665,1.340948
440231453,1.440046
440287105,1.562559
440342666,1.698769
440397719,1.735024
440458844,1.799478
440512970,1.742275
440568550,1.657679
440625795,1.627013
440683123,1.708437
440746410,1.485214
440827530,3.237963
440864232,1.014548
440899470,1.247489
440933881,1.286162
440967997,1.335308
441051741,1.671376
441086762,1.529526
441118196,1.630236
441153455,1.66493
441188901,1.668153
441223039,1.697157
441260139,1.723745
441293983,1.739052
441329008,1.67621
441362290,1.712465
441396332,1.749526
441431790,1.71891
441466210,1.829288
441502143,1.626207
441541594,1.618151
441579538,1.870428
441662190,1.22488
441698770,1.33128
441733797,1.429572
441768780,1.490048
441809944,1.615734
441845708,1.556919
441886364,1.558531
441923760,1.622985
441962911,1.722939
441996902,1.809952
442034013,1.775308
442072516,1.729384
442110505,1.665736
442152742,1.713271
442190140,1.657679
442233335,1.73019
442317513,1.845402
442355756,1.660096
442394594,1.631847
442433199,1.899432
442469614,1.180568
442510100,1.180568
442546217,1.236965
442585002,1.382843
442628758,1.585118
442666450,1.680238
442705882,1.590758
442743856,1.533555
442783968,1.556919
442824984,1.650428
442865538,1.70038
442907259,1.62943
442989146,1.339336
443032797,1.054076
443073698,0.3650217
443116543,0.0169192
443155723,0.01853055
443194440,0.01450217
443233754,0.01530785
443273426,0.01611353
443315499,0.01611353
443358481,0.2417532
443395867,0.6083863
443437474,0.9911834
443477764,1.202321
443518964,1.442463
443557807,1.729384
443599349,1.955024
443688554,1.870428
443728156,1.87929
443769643,1.865594
443809824,1.839762
443852584,2.019478
443892101,1.72455
443933072,1.690712
443974989,3.237157
444017164,1.640709
444057994,1.837345
444101519,2.118627
444143521,2.241895
444185322,2.131517
444226840,1.895404
444268900,1.915546
444310076,2.129906
444395353,2.179858
444435058,2.026729
444480445,2.050094
444524722,2.118627
444569655,2.061373
444615109,1.839762
444657630,1.871234
444699572,3.179954
444744745,1.321611
444788946,1.636681
444833818,1.964692
444878271,2.212085
444923749,2.146825
444968945,1.818814
445010385,1.781753
445051112,1.923603
445147344,1.864788
445191611,1.851847
445236856,1.89621
445281440,1.955024
445325935,1.835733
445370627,1.695546
445421245,2.771376
445470986,1.289384
445515143,1.519858
445558693,1.589952
445603663,1.637487
445650688,1.851041
445697577,1.682655
445744180,1.606065
445788697,1.577867
445833984,1.660096
445919897,1.647155
445965570,1.62943
446010935,1.776919
446057309,1.73583
446102042,1.494076
446150403,2.227393
446196971,1.014548
446245481,1.199904
446289694,1.375592
446334897,1.595592
446380767,1.66493
446431244,1.607677
446478251,1.711659
446523766,1.753555
446571552,1.868817
446618792,1.768057
446711486,1.455404
446759461,1.508579
446806274,1.589952
446854043,1.62943
446900420,1.642321
446948061,1.007297
446997457,1.30872
447043568,1.351421
447093694,1.846207
447142103,1.473935
447190123,1.28455
447238691,1.342559
447289870,1.378009
447336440,1.613317
447384431,1.686683
447435001,1.869622
447526117,1.87929
447575654,1.628624
447629897,1.511801
447678023,3.208959
447726172,1.134644
447775534,1.367535
447825106,1.52872
447876116,1.930048
447926762,1.679432
447980579,1.687489
448030932,1.830899
448079409,1.917157
448129081,1.847013
448178362,1.827677
448230385,1.747109
448290972,1.762417
448387636,1.610094
448439167,1.690712
448490353,1.149952
448545402,1.353838
448596072,1.632653
448644605,1.76
448699660,1.805923
448751113,1.684266
448803569,1.674598
448854966,1.78417
448905574,1.70602
448957702,1.75436
449011460,1.751943
449062482,1.692323
449117249,1.89621
449170718,1.589952
449266259,1.115308
449319511,1.229714
449372801,1.48038
449428588,1.644738
449481222,1.747109
449533824,1.677015
449588691,1.586729
449642741,1.576255
449702857,2.040426
449754908,1.861565
449808200,1.690712
449863312,1.805118
449915718,1.949384
449969046,1.726162
450024579,2.899529
450077773,1.33128
450177126,1.728579
450232031,1.964692
450283635,1.727773
450336876,1.81962
450394481,1.86076
450448749,1.751943
450502809,1.689101
450555140,1.730996
450607502,1.830094
450661999,1.540806
450715512,1.487631
450769588,1.044408
450824353,1.241044
450880481,1.425544
450941201,1.657679
450995912,1.706825
451091195,1.793838
451142693,1.710048
451202982,1.662513
451292073,1.735024
451326245,1.814786
451362218,1.553697
451396732,1.620568
451430063,1.455404
451466149,2.470758
451501519,1.171705
451540262,1.22488
451575086,1.380426
451616912,1.517441
451652108,1.678627
451687789,1.655262
451722424,1.54564
451805625,1.685072
451839639,1.731801
451878903,1.708437
451912714,1.693934
451950525,1.681044
451990760,1.760806
452028403,1.708437
452065770,1.596397
452102747,1.296635
452139880,3.224266
452177476,1.255546
452214770,1.278105
452251437,1.408624
452287309,1.481991
452330506,1.701991
452368475,1.699574
452449374,1.677821
452486783,1.70602
452523501,1.730996
452560002,1.749526
452597861,1.753555
452636909,1.842179
452675617,1.864788
452712838,1.695546
452753309,1.445736
452791454,3.161424
452830797,1.326445
452867669,1.303081
452907205,1.397345
452947180,1.544028
452985924,1.671376
453024535,1.622179
453110054,1.721328
453146639,1.712465
453186398,1.706825
453227033,1.679432
453266474,1.701991
453304356,1.827677
453344849,1.523081
453383663,1.483603
453422239,3.233934
453461151,1.013742
453500547,1.229714
453539162,1.363507
453581408,1.481991
453621402,1.606871
453662783,1.627819
453704790,1.606065
453788918,1.788199
453831836,1.793033
453871681,1.753555
453909385,1.718105
453951974,1.81398
453992477,1.755166
454034801,1.644738
454076602,1.613317
454119610,0.964596
454160652,1.208766
454199299,1.309526
454242364,1.42071
454289445,1.716493
454332591,1.764028
454375331,1.727773
454417180,1.741469
454501148,1.693129
454543199,1.664124
454591737,1.735024
454638370,1.820426
454677521,1.710048
454718319,1.59962
454760204,1.654456
454802672,0.9508995
454844809,1.241044
454888575,1.392511
454929991,1.547251
454972313,1.717299
455015342,1.725356
455058142,1.685878
455099645,1.73583
455146056,1.769668
455230095,1.604454
455276628,1.465072
455320348,1.236965
455365820,1.394122
455407231,1.174122
455449164,1.247489
455492380,3.197679
455539885,1.133033
455583856,1.294218
455626354,1.544834
455669171,1.824454
455711504,2.331376
455754210,1.887347
455799844,1.647155
455844382,1.902655
455891932,2.067063
455977953,1.809146
456021107,1.710854
456065894,2.046066
456109578,1.812369
456157068,1.710854
456202951,3.239574
456248372,1.396539
456294490,1.465878
456341585,1.539194
456384025,1.736635
456429534,1.9091
456478833,1.697157
456526840,1.67621
456574801,1.738247
456626503,1.671376
456675257,1.690712
456760408,1.899432
456808722,1.651234
456857260,1.287773
456904080,1.322417
456952331,1.242655
457002311,1.250712
457049866,1.425544
457095731,1.503745
457142275,1.477963
457190851,1.638292
457240720,1.658485
457298431,1.643932
457346281,1.67057
457395569,1.727773
457444981,1.94455
457499618,1.611705
457588092,1.525498
457634575,1.315166
457686873,1.458627
457737022,1.622179
457786401,1.826066
457835914,1.703603
457885860,1.704408
457934872,1.748721
457986120,1.742275
458035298,1.72455
458085024,1.756777
458135150,1.834122
458185790,1.681044
458236035,1.570616
458285787,3.241185
458340669,1.151563
458431650,1.544028
458481136,1.692323
458533243,1.775308
458584062,1.719716
458640788,1.785782
458687634,1.84379
458739133,1.687489
458790770,1.79545
458840888,1.702797
458890791,1.852653
458943669,1.613317
458994265,1.581895
459042697,3.159007
459094377,1.26038
459145416,1.37962
459196139,1.531943
459292101,1.727773
459344139,1.677015
459397243,1.712465
459446126,1.751138
459495846,1.654456
459546805,1.697963
459597369,1.643932
459646953,1.743081
459699091,1.527915
459752716,1.428766
459809972,3.026825
459860149,1.074218
459912842,1.390094
459963603,1.549668
460020033,1.90185
460078397,1.809146
460173484,1.523081
460230448,1.149952
460282739,0.7268711
460336239,0.5205677
460390444,0.5068711
460443811,0.2667292
460499277,0.1329366
460552233,0.3738842
460609968,0.8630808
460664929,1.029856
460718792,1.236965
460773406,1.452987
460828128,1.602037
460880014,1.653651
460937523,1.777725
460991287,1.918769
461087448,2.032369
461146993,1.84943
461202811,1.722133
461258021,1.883319
461313159,1.465878
461368358,1.735024
461427496,2.032369
461481291,2.056539
461535982,1.874456
461590643,2.139574
461650726,2.061373
461738961,1.989668
461773806,2.182275
461807966,2.240284
461842716,2.14038
461876918,1.801895
461955961,3.242797
461992053,1.367535
462026638,1.656068
462062954,1.775308
462098470,1.959858
462135225,2.125072
462171161,2.20564
462207992,2.030758
462246727,1.881707
462280920,1.847013
462316749,1.969526
462349825,2.082371
462383655,1.93891
462416459,1.893793
462452655,1.895404
462489607,1.915546
462566566,2.021895
462602800,1.642321
462638997,1.634264
462676827,3.238769
462712432,1.166871
462748692,1.423127
462786278,1.503745
462825467,1.586729
462860521,1.632653
462901709,1.728579
462939769,1.643127
462979013,1.594786
463020449,1.639098
463056408,1.656068
463099399,1.628624
463134142,1.644738
463217063,1.560948
463257200,1.582701
463295567,1.774502
463334536,1.558531
463374546,1.508579
463412677,1.993697
463449296,1.061328
463483886,1.177345
463525297,1.267631
463564022,1.407819
463603834,1.538389
463642910,1.667347
463683665,1.608482
463722785,1.65929
463769458,1.785782
463812032,1.805118
463890921,1.584312
463931037,1.486825
463969366,1.581089
464010829,1.60526
464052282,1.833316
464093429,1.685072
464132396,1.721328
464171199,2.227393
464211850,0.9573449
464251933,1.176539
464292033,1.288579
464334461,1.411847
464373357,1.544028
464417191,1.473935
464458473,1.483603
464501420,1.645544
464584276,1.981611
464623827,2.256397
464664399,2.038814
464709400,1.820426
464749947,1.859954
464788468,1.865594
464825887,1.964692
464866843,2.037203
464906798,2.372465
464950051,2.686779
464991899,1.090332
465036879,1.10564
465078955,1.187013
465121068,1.349004
465163933,1.549668
465204821,1.653651
465289295,1.788199
465331309,1.820426
465373957,1.735024
465414342,1.816397
465458628,1.723745
465499657,1.677821
465542396,1.81962
465586194,1.637487
465628883,1.698769
465675476,3.075972
465720590,1.34417
465764899,1.345782
465807767,1.252323
465854642,1.313555
465900306,1.306304
465944145,1.336113
466029003,1.660902
466075279,1.557725
466120192,1.579478
466163342,1.619762
466205848,1.796255
466250150,1.576255
466298261,1.423127
466355075,1.44493
466400446,0.9283405
466446433,1.144312
466493104,1.240238
466544059,1.369952
466589300,1.44493
466633480,1.535972
466682980,1.750332
466730473,1.912323
466820069,1.758389
466867118,1.785782
466912945,1.932465
466957658,1.570616
467004920,1.571421
467051540,3.231518
467100344,1.22488
467147933,1.444124
467195921,1.522275
467245077,1.872039
467292217,1.842179
467344610,1.831705
467390118,1.904266
467437340,1.790616
467487069,1.8664
467536671,1.893793
467634250,2.00981
467679909,1.631041
467726659,1.498911
467773993,2.043648
467820354,1.12417
467867137,1.270048
467914679,1.279716
467962395,1.468295
468009681,1.538389
468059383,1.535972
468105772,1.70038
468151696,1.773697
468201605,1.768862
468249336,1.753555
468296930,1.685878
468343795,1.870428
468433371,1.334502
468481438,0.9557335
468528992,1.249906
468576715,1.295024
468627751,1.581089
468677756,1.527915
468729718,1.609288
468777193,1.56981
468827036,1.799478
468874867,1.871234
468927806,1.970332
468982392,2.017867
469033236,1.769668
469084996,1.742275
469134966,3.241185
469183816,1.338531
469275622,1.567393
469326677,1.91474
469380991,1.798673
469431387,1.790616
469487732,1.924408
469538550,1.787393
469589873,1.793838
469642060,1.793033
469692699,1.938105
469741966,1.570616
469795351,1.757583
469846626,1.132227
469899903,1.246683
469956966,1.446541
470008553,1.708437
470061255,1.678627
470153059,1.688295
470205783,1.75436
470261328,1.692323
470315066,1.67057
470368031,1.769668
470421191,1.626207
470479796,1.509384
470533773,3.215404
470585424,1.176539
470637686,1.176539
470690505,1.402985
470743527,1.411847
470798475,1.374786
470853349,1.460238
470904913,1.512607
470959569,1.434406
471052588,1.569004
471107138,1.780948
471158976,1.431183
471211929,1.830094
471267068,1.110474
471318926,1.171705
471372888,1.249906
471425728,1.445736
471476640,1.457821
471530084,1.622179
471583369,1.768862
471638262,1.698769
471691451,1.690712
471746663,1.818814
471800734,1.792227
471855699,1.556919
471952044,3.118723
472006482,1.28455
472061622,1.401373
472145012,1.686683
472182498,1.742275
472215902,1.653651
472254011,1.703603
472291277,1.818009
472325602,1.853458
472363952,1.801089
472397922,1.71891
472435865,1.712465
472471619,1.747915
472508948,1.837345
472545135,2.074314
472582222,1.737441
472659761,1.798673
472693877,1.933271
472731529,1.184596
472769851,1.307109
472807551,1.475546
472845012,1.62943
472881108,1.690712
472919362,1.686683
472955829,1.666541
473000025,1.776919
473039975,1.810758
473073685,1.728579
473110566,1.726162
473147056,1.775308
473185665,1.793033
473222479,1.757583
473303000,1.808341
473337949,1.589146
473376605,1.330474
473414160,3.233129
473453076,1.203127
473490059,1.224074
473529588,1.332085
473565618,1.473129
473605301,1.589146
473643267,1.627819
473683064,1.613317
473718928,1.590758
473755526,1.616539
473794919,1.683461
473835657,1.679432
473874198,1.692323
473953374,1.662513
473990738,1.693129
474029595,1.8664
474069011,1.717299
474108105,1.601231
474147067,1.418293
474188559,2.10493
474227508,1.242655
474266939,1.365118
474306536,1.50455
474344588,1.682655
474385113,1.865594
474425365,1.822037
474465524,1.759194
474504199,1.776114
474547353,1.776919
474628555,1.66493
474667604,1.67621
474709894,1.645544
474751367,1.627819
474793630,1.749526
474838226,1.555308
474880171,1.521469
474920401,2.024312
474961530,1.048437
475004442,1.26602
475048889,1.341753
475091619,1.43924
475136108,1.611705
475178366,1.713271
475218833,1.728579
475259738,1.807535
475345076,1.793838
475389484,1.679432
475441243,1.722133
475485056,1.712465
475528952,1.610094
475571156,1.627819
475620361,1.751943
475664155,1.536777
475705336,1.182179
475750815,0.9315633
475795590,0.8606638
475839732,1.079858
475885132,1.324028
475929495,1.357061
475972927,1.300664
476016895,1.34981
476099526,1.740664
476145602,1.760806
476190151,1.741469
476236891,1.805923
476283198,1.937299
476327671,1.880902
476376880,1.867205
476421363,1.977583
476465487,1.690712
476513579,1.602037
476558770,1.228103
476612228,1.277299
476653845,1.442463
476697770,1.668153
476743949,1.850236
476787783,1.76
476873946,1.779336
476921423,1.934076
476965702,1.831705
477010295,1.764028
477056581,1.81398
477099298,1.840568
477144564,1.942133
477191863,2.085594
477237006,1.718105
477282005,1.53436
477325901,3.110666
477369862,1.337725
477417092,1.493271
477461961,1.711659
477506199,1.818814
477555978,1.859954
477646740,1.809146
477698391,1.830899
477745348,1.798673
477790597,1.677821
477835799,1.736635
477889346,1.666541
477941234,1.845402
477988043,1.594786
478036453,1.561753
478083111,3.243603
478129139,1.156397
478177932,1.236965
478225847,1.400568
478277318,1.610094
478324496,1.665736
478376665,1.672987
478468341,1.723745
478516813,1.696352
478565944,1.67621
478613524,1.647961
478658412,1.712465
478710271,1.651234
478758117,1.704408
478808749,1.479574
478862671,3.241185
478912942,1.112085
478962831,1.257963
479011010,1.366729
479060606,1.685878
479111953,1.580284
479161234,1.726162
479211421,1.689101
479303289,1.751943
479358016,1.742275
479408993,1.671376
479458448,1.773697
479506749,1.768057
479556206,1.734219
479606678,1.557725
479660454,3.239574
479713651,1.171705
479762786,1.366729
479816134,1.543223
479866381,1.67621
479918317,1.712465
479967833,1.66493
480020176,1.847013
480071848,1.717299
480163149,1.716493
480214472,1.711659
480264583,1.685072
480312954,1.859149
480363121,1.643932
480414944,1.352227
480466113,1.014548
480515811,1.2491
480567634,1.333696
480618247,1.606871
480671540,1.627013
480722728,1.660902
480774426,1.727773
480823570,1.747915
480875713,1.696352
480930760,1.593175
481024689,1.689906
481079278,1.816397
481134491,1.614122
481188536,1.458627
481247089,1.279716
481297287,1.248295
481353116,1.316777
481407032,1.502939
481460820,1.697157
481515012,1.651234
481568999,1.677015
481621255,1.78417
481671123,1.65929
481720880,1.72455
481778727,1.751138
481832753,1.673793
481929986,1.75436
481981445,1.625402
482037610,3.241185
482092117,1.158009
482160067,1.432795
482216465,1.642321
482268719,1.692323
482323599,1.652039
482376770,1.766445
482433127,1.742275
482487333,1.65929
482571113,1.622179
482606091,1.62943
482640955,1.726162
482675194,1.699574
482709488,1.709242
482786072,1.587535
482821536,1.636681
482857451,3.233934
482889888,1.031518
482925314,1.158009
482957304,1.312749
482990830,1.335308
483025693,1.467489
483062536,1.652039
483095533,1.743886
483129891,1.616539
483162853,1.693934
483198939,1.773697
483232530,1.737441
483269977,1.718105
483304231,1.727773
483381878,1.672987
483418174,1.714882
483455107,1.701991
483491222,1.651234
483526106,1.66493
483562282,1.822843
483599585,1.727773
483635572,1.660096
483672180,1.373175
483710669,2.087205
483745320,1.137867
483782352,1.224074
483821936,1.356255
483861842,1.519858
483900258,1.70602
483940424,1.723745
484018018,1.828483
484056796,1.886541
484096371,1.846207
484134777,1.755972
484175110,1.717299
484214099,1.725356
484255249,1.772085
484293701,1.725356
484330075,1.654456
484367191,1.756777
484407298,1.732607
484447085,1.561753
484495895,1.800284
484534289,1.440046
484573806,1.202321
484613547,1.25474
484699150,1.638292
484738655,1.742275
484778741,1.693934
484822835,1.668958
484864842,1.709242
484904562,1.751138
484945964,1.736635
484986092,1.692323
485026910,1.666541
485072426,1.721328
485112926,1.719716
485155928,1.78417
485197617,1.963081
485238253,1.661707
485280571,1.567393
485322102,3.241185
485409708,1.2136
485451459,1.384454
485492877,1.601231
485536979,1.78417
485580793,1.681849
485630663,1.697157
485671383,1.76
485712462,1.785782
485754724,1.768057
485796102,1.735024
485837911,1.740664
485879735,1.774502
485921673,1.733413
485962521,1.755166
486006952,1.801089
486049649,1.56417
486131074,3.136448
486175344,1.221657
486217337,1.30872
486259164,1.440851
486300158,1.590758
486339578,1.716493
486384367,1.543223
486425952,1.542417
486468622,1.619762
486511156,1.714882
486553608,1.745498
486603363,1.653651
486645229,1.618956
486685700,1.59962
486727055,1.608482
486773722,1.745498
486866390,1.538389
486911763,3.24038
486958396,1.282939
487002134,1.232937
487046619,1.311138
487092122,1.558531
487136654,1.717299
487186543,1.532749
487231275,1.654456
487280864,1.728579
487325858,1.671376
487370034,1.638292
487416181,1.722133
487462914,1.66493
487506374,1.627013
487555411,1.817203
487642579,1.586729
487690025,2.970428
487741137,1.263603
487788320,1.203127
487835149,1.454598
487882188,1.570616
487930633,1.679432
487980570,1.656068
488028675,1.679432
488076279,1.833316
488121873,1.750332
488173830,1.743886
488222029,1.708437
488268909,1.660096
488314460,1.780142
488362287,1.899432
488450135,1.336113
488501313,1.303081
488549830,1.214406
488596815,1.401373
488645433,1.48038
488693535,1.73583
488742616,1.608482
488788846,1.672181
488836275,1.847819
488884492,1.766445
488930472,1.744692
488978755,1.760806
489025499,1.66493
489071487,1.728579
489118372,1.870428
489167635,1.585118
489260709,3.237963
489308178,1.180568
489358666,1.369952
489407459,1.455404
489455696,1.769668
489505699,1.684266
489554535,1.801895
489602107,1.776919
489651240,1.782559
489703386,1.692323
489752438,1.73019
489805202,1.667347
489858677,1.741469
489907641,1.854264
489963416,1.552891
490010988,1.650428
490104117,1.142701
490154233,1.405402
490205331,1.498911
490256802,1.75436
490309209,1.618956
490361552,1.710048
490409770,1.755972
490461578,1.697963
490514910,1.751943
490566026,1.647155
490617368,1.764834
490668134,1.764834
490720728,1.616539
490771550,1.606871
490830071,2.071898
490885425,1.133033
490976291,1.560142
491028435,1.686683
491079831,1.655262
491131822,1.725356
491183471,1.712465
491233337,1.826871
491286857,1.702797
491339292,1.680238
491393049,1.741469
491445380,1.751138
491500016,1.70602
491551254,1.699574
491607159,2.638389
491662055,1.247489
491718424,1.4691
491771079,1.646349
491864134,1.639904
491916617,1.801895
491973638,1.841373
492024252,1.67621
492074487,1.717299
492125875,1.622985
492177796,1.809146
492231049,1.658485
492286444,1.344976
492338641,1.445736
492395478,1.365924
492449616,1.470712
492503511,1.585118
492557660,1.703603
492609505,1.643932
492666205,1.679432
492762967,1.664124
492816509,1.751943
492869943,1.712465
492927568,1.903461
493009461,1.567393
493045954,3.159007
493083899,0.8985305
493121802,1.091138
493160554,1.209572
493195576,1.412653
493229402,1.531138
493266204,1.577061
493303020,1.506967
493339993,1.539194
493376662,1.652039
493413555,1.70038
493492575,1.714882
493526141,1.633458
493560406,1.616539
493597843,1.673793
493637463,1.713271
493683554,1.755166
493720067,1.529526
493757751,1.574644
493794702,3.031659
493836701,1.100806
493873008,1.205544
493907945,1.206349
493948771,1.405402
493987346,1.581089
494024019,1.666541
494062127,1.587535
494138877,1.739052
494176516,1.791421
494216135,1.764834
494253643,1.737441
494292026,1.722133
494330610,1.722133
494369614,1.792227
494410021,1.81962
494449511,1.868011
494491829,1.807535
494530069,1.633458
494566573,1.43924
494608669,3.233934
494649635,1.240238
494696320,1.296635
494734073,1.427155
494817149,1.745498
494858038,1.637487
494895253,1.689906
494931065,1.740664
494970631,1.783365
495008340,1.76564
495045864,1.681044
495086570,1.683461
495125895,1.680238
495164299,1.67057
495206049,1.674598
495246171,1.793838
495285249,1.661707
495322493,1.551279
495359877,1.407819
495400062,1.801089
495481107,1.244266
495520253,1.394928
495563978,1.552085
495605155,1.689101
495647248,1.616539
495688135,1.681044
495727017,1.73583
495765644,1.751943
495810845,1.851041
495857003,1.760806
495899443,1.681044
495943687,1.647961
495984602,1.73583
496024544,1.783365
496067195,1.594786
496109270,1.3909
496195173,1.299052
496234568,1.401373
496280735,1.476351
496324059,1.612511
496366471,1.747109
496409677,1.755166
496453317,1.757583
496493766,1.809146
496540964,1.747915
496581156,1.663319
496625468,1.652039
496673278,1.718105
496717503,1.73019
496761119,1.656068
496804896,1.542417
496849902,1.593175
496938586,1.194264
496983479,1.257157
497027825,1.497299
497070656,1.682655
497119223,1.590758
497165493,1.59962
497208301,1.728579
497249797,1.790616
497293571,1.73583
497337815,1.662513
497384714,1.634264
497431407,1.731801
497473160,1.858343
497518668,1.583507
497563042,1.549668
497608818,3.241185
497693212,1.251517
497739546,1.283745
497786573,1.503745
497831973,1.730996
497877573,1.63507
497921512,1.650428
497964037,1.711659
498010720,1.822843
498056211,1.776114
498100700,1.731801
498147246,1.783365
498194717,1.82526
498239483,1.827677
498284271,1.679432
498331515,1.669764
498377466,2.915642
498464409,1.184596
498509938,1.412653
498558123,1.544028
498604489,1.705214
498653217,1.698769
498703990,1.654456
498750137,1.831705
498802754,1.686683
498846827,1.697963
498898051,1.628624
498947461,1.690712
498997001,1.689906
499045374,1.81962
499094793,1.614122
499141119,1.358672
499185285,1.300664
499270828,1.340948
499321964,1.43924
499371630,1.73019
499419807,1.564976
499467237,1.626207
499515702,1.723745
499563878,1.714076
499618160,1.699574
499670533,1.774502
499715341,1.721328
499761553,1.690712
499809045,1.707631
499856881,1.507773
499905588,2.96076
499951563,0.9976288
500000336,1.161231
500094968,1.513413
500143971,1.586729
500193015,1.668153
500244223,1.683461
500292226,1.796255
500343733,1.664124
500392047,1.727773
500444435,1.67621
500492591,1.846207
500541325,1.532749
500591085,1.569004
500644023,2.288675
500694788,1.237821
500744152,1.313555
500793716,1.56417
500846368,1.667347
500938409,1.660096
500991445,1.808341
501042672,1.702797
501098064,1.679432
501148404,1.726162
501200608,1.727773
501252938,1.872845
501302020,1.531138
501354477,2.813271
501406721,1.29583
501458551,1.257963
501509411,1.566587
501562896,1.710048
501613685,1.782559
501666674,1.743886
501721460,1.75436
501817446,1.726162
501872781,1.782559
501926493,1.726162
501977377,1.882513
502030460,1.664124
502083602,1.298247
502137341,0.984738
502191041,1.305498
502244685,1.465072
502298817,1.698769
502350904,1.785782
502403548,1.627819
502458560,1.719716
502515900,1.764028
502580501,1.685878
502636425,1.691517
502734579,1.925214
502790250,1.652039
502850848,2.332181
502904952,1.238627
502957683,1.231325
503016336,1.452987
503071204,1.726967
503127129,1.633458
503184241,1.641515
503238906,1.709242
503294096,1.768057
503350110,1.748721
503437631,1.616539
503473230,1.768862
503511044,1.741469
503548414,1.637487
503625867,2.850332
503665220,1.253129
503700655,1.200709
503737557,1.313555
503775209,1.490048
503813140,1.628624
503856637,1.646349
503891286,1.731801
503926954,1.72455
503964890,1.722939
504000146,1.687489
504035286,1.709242
504070969,1.744692
504105916,1.708437
504140295,1.654456
504177410,1.673793
504253626,1.70038
504288560,1.639098
504327759,1.40379
504364286,2.345072
504400882,1.2136
504434607,1.292607
504468495,1.440046
504505452,1.506967
504542079,1.544028
504579732,1.636681
504617898,1.62943
504654906,1.722939
504694897,1.764028
504732335,1.813175
504768261,1.718105
504803213,1.615734
504886239,1.663319
504930164,1.727773
504969099,1.897015
505009942,1.625402
505047130,1.596397
505083879,1.597203
505123294,1.187819
505163696,1.116114
505205620,1.26602
505243905,1.390094
505287917,1.634264
505328176,1.782559
505367421,1.730996
505407405,1.785782
505445562,1.783365
505482625,1.76
505568727,1.755972
505607214,1.75436
505647165,1.730996
505692193,1.818814
505731848,1.798673
505774233,1.601231
505815073,1.349004
505857263,1.915546
505900891,1.119336
505941124,1.226491
505982525,1.392511
506023670,1.626207
506070543,1.801089
506112525,1.698769
506154066,1.739052
506193272,1.783365
506277340,1.708437
506318763,1.633458
506361138,1.616539
506403501,1.633458
506444314,1.673793
506486892,1.864788
506526616,1.598814
506569534,1.609288
506609498,3.237963
506652578,1.273271
506694361,1.297441
506734492,1.402985
506776269,1.482797
506817160,1.639098
506858318,1.616539
506900106,1.539194
506984192,1.738247
507027268,1.780948
507068616,1.82526
507112801,1.902655
507155227,1.934076
507199294,1.718105
507241130,1.672181
507285368,1.43924
507326784,1.178151
507369564,1.461849
507414592,1.074218
507457781,1.196681
507503309,1.363507
507549319,1.598814
507592431,1.690712
507640629,1.600426
507725801,1.771279
507772831,1.750332
507816347,1.672181
507859971,1.615734
507906316,1.793838
507952273,1.710048
507997830,1.561753
508039473,2.067063
508086106,1.111279
508133796,1.324028
508177909,1.358672
508223261,1.465878
508267914,1.622179
508314158,1.558531
508359752,1.618151
508409117,1.905072
508501115,1.796255
508543687,1.73583
508589700,1.839762
508634985,1.94455
508680540,1.732607
508725983,1.638292
508770956,2.873697
508818505,1.211989
508865045,1.319194
508911253,1.594786
508957301,1.734219
509005787,1.87929
509050828,1.763223
509100942,1.749526
509147658,1.840568
509196410,1.748721
509284069,1.697963
509328507,1.793838
509373942,1.772891
509424203,1.90185
509471731,1.67621
509516817,1.33128
509562245,1.311943
509609223,1.291801
509656187,1.346587
509706062,1.581895
509754021,1.709242
509804892,1.635875
509854658,1.687489
509902600,1.775308
509949524,1.834122
509995196,1.729384
510088239,1.572227
510135292,1.421515
510182855,1.493271
510230445,1.72455
510282216,1.776114
510330977,3.236351
510380170,1.302275
510432627,1.271659
510483484,1.502939
510536702,1.674598
510586891,1.728579
510634645,1.66493
510684697,1.727773
510734504,1.793033
510785811,1.761611
510836504,1.693934
510930175,1.692323
510981483,1.672181
511030941,1.70602
511080778,1.63507
511133067,3.219432
511186827,1.227297
511246776,1.434406
511297811,1.556113
511350381,2.065452
511402995,1.758389
511460846,1.750332
511511712,1.857537
511563421,1.639098
511619242,1.651234
511672808,1.756777
511725851,1.685072
511820747,1.514218
511874243,1.305498
511926658,1.045214
511981053,1.108057
512035606,1.26038
512087850,1.595592
512141665,1.625402
512196579,1.621373
512248306,1.78417
512307433,1.786587
512359566,1.57545
512411567,1.662513
512467444,1.738247
512522139,1.909906
512583636,1.581089
512635844,2.161328
512728582,1.241849
512782392,1.326445
512835212,1.542417
512890382,1.67621
512944304,1.660902
512997609,1.62943
513050452,1.711659
513106133,1.718105
513160090,1.663319
513213747,1.702797
513269089,1.870428
513323502,1.607677
513377726,1.328862
513430320,1.126587
513482748,1.253935
513538938,1.376397
513635396,1.685072
513689471,1.704408
513747453,1.797061
513802120,1.711659
513859534,1.639098
513942099,1.698769
513975220,1.768862
514016444,1.755166
514056380,1.564976
514091494,1.496493
514129317,3.232323
514163742,0.9766811
514197304,1.211989
514230783,1.40379
514267915,1.52872
514305782,1.625402
514380971,1.65929
514421186,1.661707
514457270,1.706825
514492727,1.868817
514529605,1.9091
514566819,1.846207
514599285,1.683461
514638916,1.656068
514674498,1.72455
514711637,1.809146
514752216,2.046871
514788436,1.747915
514825581,1.719716
514860267,1.893793
514898010,1.30872
514938188,1.178151
515019407,1.432795
515059038,1.604454
515094373,1.745498
515135873,1.697157
515177103,1.714882
515214431,1.775308
515251292,1.847013
515287843,1.788199
515325717,1.723745
515364769,1.71891
515405114,1.740664
515442426,1.714882
515482992,1.917157
515519407,1.560142
515559012,1.538389
515597811,1.793838
515681136,1.145924
515721456,1.218434
515759216,1.332891
515798051,1.493271
515834337,1.646349
515870923,1.646349
515910821,1.673793
515949802,1.758389
515989379,1.817203
516027248,1.793033
516066084,1.726162
516105658,1.689906
516146755,1.76
516185808,1.727773
516225356,1.739052
516263790,1.868011
516342485,1.570616
516385399,3.226683
516426406,1.031518
516468635,1.290996
516511473,1.348199
516553074,1.464266
516599287,1.57545
516637736,1.627013
516681865,1.660096
516722502,1.704408
516764717,1.751943
516806596,1.704408
516849648,1.728579
516892462,1.704408
516932675,1.606065
516970942,1.580284
517057816,1.374786
517101256,1.574644
517144022,3.238769
517186014,1.327251
517229560,1.498911
517271618,1.582701
517319658,1.685072
517366879,1.897015
517406015,1.785782
517448759,1.805923
517490685,1.59962
517533244,1.507773
517575469,1.429572
517618855,1.407013
517661940,1.424738
517705008,1.548057
517790956,1.672181
517832614,1.491659
517876463,1.236965
517920193,1.176539
517964667,1.16526
518007433,1.299858
518053520,1.421515
518095759,1.589952
518136953,1.615734
518179113,1.595592
518225366,1.782559
518269498,1.84379
518310976,1.81962
518351044,1.773697
518394621,1.689906
518438191,1.639098
518526547,1.95019
518571641,1.633458
518617701,1.537583
518662681,3.243603
518708412,1.236159
518753586,1.22488
518797010,1.332891
518844630,1.671376
518887385,1.793033
518932923,1.671376
518977329,1.70038
519023636,1.808341
519069035,1.800284
519116763,1.681044
519164583,1.747109
519212532,1.750332
519305521,1.809146
519354431,1.603648
519399935,1.588341
519446795,3.24038
519493544,1.216823
519543371,1.317583
519593107,1.484408
519644143,1.758389
519692026,1.727773
519737946,1.669764
519784256,1.834122
519832760,1.818009
519883072,1.778531
519940727,1.690712
519988535,1.799478
520039246,1.747109
520130619,2.316874
520184029,1.610094
520232461,2.070286
520278009,1.025022
520330134,1.407013
520377518,1.47474
520426065,1.783365
520474611,1.745498
520523015,1.622985
520570837,1.62943
520621234,1.657679
520672692,1.721328
520722599,1.858343
520773305,1.885736
520823488,1.885736
520872967,1.988057
520970268,1.448153
521020100,0.9251179
521069697,1.239432
521122999,1.362701
521175176,1.495688
521232193,1.62379
521279991,1.584312
521329852,1.741469
521381430,1.716493
521431276,1.620568
521481812,1.521469
521533186,1.335308
521582623,1.48602
521631779,1.71891
521684364,1.726162
521734294,3.233934
521826942,1.479574
521879357,1.531943
521929581,1.808341
521982378,1.695546
522030928,1.688295
522080689,1.743081
522132208,1.805118
522185138,1.763223
522236575,1.652845
522291656,1.719716
522345115,1.771279
522400278,1.853458
522450543,1.62943
522500791,1.93891
522557145,1.067773
522613482,1.208766
522707610,1.573838
522761377,1.552085
522813624,1.581895
522864669,1.818814
522918667,1.822037
522971881,1.761611
523028319,1.733413
523080875,1.663319
523137584,1.730996
523191365,1.592369
523244008,1.553697
523298296,1.747915
523352955,1.240238
523404512,1.42071
523461839,1.56981
523513988,1.66493
523610620,1.618956
523668838,1.655262
523724384,1.697157
523779448,1.776114
523834465,1.715688
523889855,2.512703
523946772,1.411041
524001883,1.177345
524058954,1.326445
524111659,1.233742
524170424,1.42071
524228993,2.001753
524283717,1.863983
524367194,1.838151
524399775,1.680238
524437366,1.602037
524517172,1.263603
524551383,1.313555
524588057,1.441657
524621233,1.408624
524657408,1.484408
524689926,1.689101
524725451,1.578672
524760759,1.54564
524796336,2.57474
524830841,1.076635
524863875,1.336919
524899336,1.428766
524936397,1.521469
524972282,1.67057
525008849,1.827677
525043524,1.829288
525123393,1.888959
525158425,1.893793
525195000,1.913129
525230470,1.876068
525265516,1.975972
525299537,1.864788
525333884,1.833316
525373368,1.820426
525410643,2.064646
525448694,2.268482
525489529,1.753555
525525231,1.712465
525568021,3.24038
525603212,1.120948
525644723,1.415876
525680799,1.487631
525761256,1.768862
525799694,1.815592
525838066,1.608482
525876144,1.556919
525910326,1.730996
525949914,1.839762
525992996,1.827677
526032924,1.831705
526072450,1.757583
526108927,1.710048
526149248,1.712465
526187908,1.797061
526232395,1.726162
526274595,1.580284
526312117,1.357867
526351075,2.638389
526431585,1.413458
526467606,1.570616
526507968,1.690712
526546304,1.808341
526585560,1.734219
526624793,1.681044
526663252,1.75436
526703752,1.79545
526745626,1.797867
526784264,1.706825
526826327,1.677015
526863891,1.652845
526907416,1.689906
526947499,1.783365
526985220,1.786587
527025296,1.59398
527110619,1.948579
527151601,1.175734
527191205,1.287773
527230860,1.4336
527272227,1.568199
527313678,1.652845
527357870,1.585924
527399200,1.604454
527443253,1.715688
527486430,1.758389
527528550,1.748721
527569882,1.705214
527609987,1.721328
527652977,1.70038
527693186,1.736635
527734257,1.935688
527819215,1.552085
527863044,3.24038
527905124,1.267631
527949542,1.311943
527994374,1.427961
528038705,1.616539
528085367,1.809952
528129070,1.73583
528171012,1.73583
528214326,1.730996
528259035,1.714882
528303812,1.722133
528348571,1.723745
528395239,1.666541
528439456,1.703603
528481986,1.753555
528567551,1.647155
528612772,1.283745
528661747,1.117725
528717454,1.166871
528760771,1.313555
528805578,1.559336
528851187,1.702797
528902249,1.606871
528946110,1.679432
528988163,1.722133
529036007,1.704408
529081489,1.753555
529127084,1.814786
529173651,1.701991
529219589,1.674598
529265493,1.745498
529354761,1.608482
529403023,1.606871
529449525,3.242797
529496926,1.178151
529542392,1.329668
529588801,1.563365
529641408,1.725356
529686412,1.78417
529734639,1.597203
529783568,1.709242
529831118,1.726162
529885265,1.747915
529929060,1.710854
529975229,1.655262
530023303,1.727773
530068634,1.749526
530157066,1.743081
530206381,1.652039
530252170,1.945356
530298719,1.042797
530347732,1.354644
530394334,1.440046
530440455,1.588341
530490942,1.701991
530540821,1.573033
530589548,1.643932
530635483,1.647155
530681521,1.759194
530730374,1.777725
530777833,1.698769
530827330,1.747915
530879053,1.678627
530978314,1.523886
531025154,1.457015
531072027,2.207251
531126117,1.299858
531179055,1.404596
531229275,1.627819
531280137,1.734219
531327854,1.672181
531377362,1.63507
531425917,1.789004
531476060,1.687489
531528131,1.750332
531577104,1.651234
531631263,1.689101
531681424,1.744692
531730460,1.897015
531824209,1.419904
531874943,0.9388144
531922617,1.2491
531976930,1.386065
532025992,1.689906
532076873,1.652845
532132769,1.604454
532184080,1.762417
532235861,1.703603
532289034,1.73019
532342199,1.702797
532395514,1.680238
532448244,1.756777
532502386,1.832511
532554611,1.559336
532611412,1.336919
532711397,1.206349
532762071,1.372369
532813033,1.580284
532865005,1.833316
532918223,1.615734
532971222,1.747915
533021032,1.814786
533074251,1.690712
533124612,1.744692
533178244,1.67057
533230907,1.710048
533284881,1.955024
533337831,1.543223
533390768,1.419098
533443618,1.06455
533496991,1.236965
533589401,1.684266
533641950,1.771279
533694885,1.613317
533748776,1.755166
533802737,1.797061
533857616,1.743081
533910779,1.702797
533965547,1.618151
534020293,1.506967
534073746,1.337725
534128212,1.419098
534181233,1.610094
534237078,1.417487
534292799,1.568199
534348969,1.792227
534405811,1.840568
534505890,1.777725
534566140,1.722939
534617850,1.647155
534676636,1.626207
534731804,1.689101
534788696,1.834928
534874413,1.311943
534908688,3.15659
534939612,1.232937
534970346,1.275688
535008504,1.413458
535045154,1.578672
535081232,1.660096
535118081,1.713271
535153204,1.56981
535188578,1.631847
535271080,1.697963
535311147,1.695546
535343582,1.704408
535376454,1.627819
535410857,1.657679
535446535,1.755166
535482174,1.756777
535516723,1.826871
535554096,1.529526
535590421,1.561753
535627060,1.535166
535664591,1.493271
535701936,1.131421
535738683,1.199904
535776272,1.282133
535812859,1.445736
535898333,1.589952
535934960,1.560142
535972152,1.625402
536010498,1.70602
536048807,1.73019
536084244,1.756777
536119127,1.697157
536152612,1.67057
536189306,1.703603
536226208,1.750332
536265089,1.934882
536301916,1.654456
536341273,1.626207
536379045,1.735024
536416539,1.399762
536453587,1.239432
536530868,1.490854
536570497,1.592369
536609346,1.654456
536647674,1.4691
536686798,1.300664
536727317,1.276493
536765822,1.371563
536807857,1.419098
536850010,1.419098
536891952,1.399762
536935131,1.236965
536976599,1.098389
537015629,0.9637903
537056310,0.7437903
537098052,0.5205677
537140174,3.237963
537226200,3.251659
537269900,3.241185
537309849,3.252465
537349833,3.253271
537389456,3.252465
537431414,3.247631
537475574,1.78981
537525466,1.672181
537566385,1.957441
537607474,2.33057
537649120,2.302371
537696970,2.246729
537737860,1.834928
537777757,1.790616
537821969,3.23474
537863758,1.307109
537947536,1.85507
537988702,2.231421
538030439,2.180664
538071523,1.221657
538115934,1.63507
538161756,2.128295
538204726,2.178247
538247028,1.100806
538290657,0.3110414
538333466,0.492369
538382665,1.041991
538423946,1.440046
538466747,1.287773
538512044,1.315972
538557552,3.205736
538607711,1.076635
538692676,1.273271
538737717,1.412653
538782896,1.492465
538825589,1.349004
538868852,1.330474
538913222,1.383648
538956477,1.321611
538999527,1.190236
539044988,1.124976
539087014,0.2755917
539128411,0.01611353
539175236,0.1426047
539220998,0.02094759
539266965,0.1256855
539309216,1.747109
539351651,0.1240741
539437444,0.5826047
539481878,0.8880568
539526711,1.065356
539575322,1.065356
539620233,1.366729
539663982,1.628624
539707610,1.717299
539757369,1.624596
539809101,1.677821
539855902,1.690712
539904505,1.946967
539948867,1.736635
539992145,1.735024
540038209,3.2291
540083361,1.326445
540133071,1.606065
540221661,1.847819
540274740,2.132323
540322739,1.917157
540369723,1.908295
540417414,1.997725
540465481,1.95019
540510258,1.831705
540559280,1.832511
540603493,1.936493
540650736,2.042037
540704202,1.786587
540752680,1.624596
540801071,2.443365
540849201,1.469906
540897189,1.716493
540946151,2.137963
541033773,1.713271
541082675,1.699574
541131311,1.755166
541186537,1.963081
541236214,1.78981
541283194,1.851847
541330422,1.834928
541378806,1.863177
541428669,1.963081
541479534,1.650428
541525996,1.645544
541575994,1.193458
541622877,1.573838
541671337,1.547251
541718738,1.685072
541768929,1.775308
541865448,1.568199
541914735,1.544834
541964168,1.743081
542012057,1.580284
542060269,1.59962
542108376,1.603648
542156782,1.632653
542206699,1.859149
542254826,1.520664
542305938,1.391705
542355959,0.7953537
542407923,1.19507
542457681,1.411041
542506905,1.703603
542556058,1.808341
542606751,1.654456
542702665,1.566587
542753222,1.37962
542805812,1.465878
542860169,1.501328
542915000,1.527915
542964855,1.710854
543020989,1.751138
543068818,1.588341
543124450,2.648057
543176927,1.226491
543230674,1.318389
543284117,1.603648
543334696,1.693129
543383044,1.750332
543436935,1.669764
543493191,1.760806
543592379,1.722939
543645754,1.81962
543698416,1.785782
543751373,1.781753
543804126,1.927631
543861921,1.716493
543918276,1.483603
543968309,1.300664
544021633,1.407819
544076085,1.548057
544127123,1.805118
544188680,1.755166
544240720,1.710854
544295520,1.689906
544348887,1.72455
544402099,1.706825
544499658,1.677821
544554538,1.577061
544608048,1.669764
544664091,1.571421
544716253,1.2491
544771459,0.8791943
544825431,1.22488
544879292,1.376397
544932788,1.535166
544988675,1.622179
545042509,1.653651
545094716,1.67057
545147960,1.726967
545232183,1.643932
545268060,1.697157
545301627,1.722939
545381821,1.714882
545415602,1.701991
545448714,1.674598
545483456,1.642321
545516590,1.477963
545553836,3.23474
545589076,0.991989
545624282,1.225685
545658242,1.259574
545695021,1.34981
545729089,1.506162
545766729,1.692323
545803343,1.668153
545840068,1.628624
545880356,1.706825
545914635,1.683461
545992401,1.722133
546030233,1.698769
546067471,1.744692
546104476,1.78417
546141469,1.769668
546180087,1.750332
546216500,1.783365
546251945,1.766445
546287411,1.625402
546325857,1.624596
546366786,3.241185
546413995,1.228908
546451643,1.264408
546490529,1.401373
546526971,1.583507
546570180,1.730996
546650513,1.665736
546686765,1.755166
546729796,1.766445
546766240,1.807535
546803782,1.774502
546842906,1.710048
546881056,1.664124
546918167,1.653651
546960429,1.701991
547001572,1.71891
547040072,1.771279
547080373,1.730996
547120211,1.615734
547161062,1.390094
547206437,1.252323
547244167,1.228908
547324213,1.50455
547363414,1.67057
547405217,1.805923
547451442,1.612511
547490362,1.622985
547530651,1.699574
547572938,1.703603
547612376,1.679432
547652529,1.645544
547693405,1.643127
547733485,1.63507
547773077,1.622985
547815393,1.653651
547855911,1.691517
547895955,1.730996
547937795,1.654456
548025581,2.558627
548067534,1.061328
548105686,1.26038
548143448,1.377203
548185391,1.51583
548225352,1.681044
548266227,1.739858
548309814,1.609288
548350950,1.660902
548390999,1.710048
548429274,1.743081
548475525,1.713271
548522221,1.755166
548565438,1.734219
548608722,1.669764
548650592,1.691517
548732749,1.805118
548776316,1.631847
548818893,1.610094
548862022,3.141282
548904309,1.136255
548952520,1.181373
548995033,1.357867
549038333,1.591563
549082329,1.793838
549124679,1.647961
549164305,1.664124
549210868,1.625402
549253601,1.65929
549297246,1.693129
549344935,1.727773
549389911,1.654456
549481407,1.71891
549525969,1.714882
549569262,1.851041
549615850,1.538389
549658989,1.354644
549703226,2.375688
549746235,1.18943
549794829,1.251517
549842863,1.553697
549887274,1.704408
549930450,1.651234
549972772,1.584312
550020827,1.769668
550067214,1.785782
550110195,1.715688
550158412,1.730996
550244494,1.739858
550291265,1.672181
550337325,1.776114
550384211,1.778531
550430208,1.562559
550476091,1.868817
550522172,1.077441
550565140,1.261186
550608364,1.361895
550654164,1.498911
550700479,1.789004
550747625,1.686683
550791170,1.634264
550838594,1.805118
550882129,1.86076
550929404,1.713271
551019727,1.743886
551065271,1.803506
551109778,1.764028
551156617,1.970332
551204874,1.674598
551251441,1.407013
551298725,2.573129
551349478,1.172511
551398192,1.342559
551445235,1.581089
551498640,1.793838
551545332,1.717299
551597502,1.67621
551646127,1.764028
551696117,1.695546
551744270,1.736635
551832844,1.620568
551879093,1.69474
551923762,1.818814
551974958,1.548057
552025366,1.596397
552075479,2.921282
552124539,1.201515
552175349,1.282939
552224466,1.574644
552279633,1.739052
552332341,1.660902
552378632,1.728579
552428261,1.783365
552477139,1.76
552524527,1.766445
552573725,1.653651
552666446,1.732607
552715399,1.767251
552765806,1.574644
552815989,1.593175
552865993,0.9750698
552919896,1.235354
552968975,1.382037
553021439,1.682655
553072462,1.642321
553125322,1.701991
553175729,1.699574
553225067,1.802701
553275353,1.697963
553329075,1.642321
553378707,1.677821
553430810,1.610899
553521754,1.774502
553573538,1.518247
553628230,3.230712
553680066,1.223269
553734496,1.235354
553786325,1.506162
553836752,1.667347
553888614,1.639904
553939004,1.685072
553990937,1.717299
554043525,1.824454
554093107,1.658485
554143794,1.767251
554198550,1.722939
554250980,1.631041
554305647,1.761611
554405855,1.625402
554458862,2.227393
554516107,1.179762
554570211,1.236965
554622525,1.538389
554676727,1.683461
554731033,1.600426
554786244,1.711659
554841559,1.90185
554897617,1.839762
554949762,1.760806
555002777,1.81398
555056301,1.722133
555111876,1.698769
555170022,1.770474
555235469,1.573033
555331672,1.560142
555389303,1.218434
555445476,1.50455
555505736,1.758389
555560289,1.749526
555615152,1.627013
555704857,1.799478
555740997,1.776114
555776842,1.71891
555811714,1.685878
555846970,1.731801
555884535,1.762417
555921979,1.749526
555958333,1.719716
555994899,1.698769
556031624,1.832511
556109604,1.584312
556150511,2.220142
556185061,1.257963
556221045,1.236965
556259658,1.337725
556296697,1.436017
556339182,1.622179
556374491,1.685878
556411001,1.660902
556448432,1.62943
556484221,1.704408
556520444,1.743886
556556710,1.723745
556592847,1.652039
556628789,1.674598
556667712,1.697963
556743468,1.727773
556779375,1.695546
556816689,1.685072
556854788,1.872039
556893745,1.585118
556929285,1.625402
556964715,2.079954
557003923,1.257157
557040825,1.235354
557077231,1.29019
557117353,1.435212
557155755,1.556919
557191739,1.617345
557227454,1.601231
557268923,1.589952
557312301,1.59398
557396023,1.650428
557434868,1.606065
557472915,1.568199
557509751,1.602843
557549661,1.634264
557590231,1.635875
557631148,1.70602
557668693,1.781753
557712365,1.499716
557751010,1.382843
557789778,3.237963
557829657,1.187819
557868123,1.201515
557905040,1.408624
557948544,1.544834
557985251,1.779336
558066106,1.67057
558111825,1.631847
558152496,1.699574
558195342,1.706825
558233796,1.678627
558274800,1.688295
558317533,1.701991
558358318,1.704408
558401464,1.742275
558441702,1.801895
558486568,1.693934
558530810,1.531943
558572776,1.631847
558615036,1.002463
558654447,1.149952
558697383,1.300664
558783926,1.751138
558824977,1.780142
558867733,1.625402
558907690,1.701991
558948900,1.749526
558989048,1.730996
559032656,1.657679
559075121,1.643932
559117640,1.682655
559160069,1.734219
559201084,1.779336
559240518,1.95019
559282638,1.682655
559325324,1.708437
559367795,3.237157
559408213,1.068579
559495304,1.399762
559538140,1.602843
559580667,1.79545
559624805,1.723745
559667832,1.655262
559709776,1.668153
559753125,1.656068
559799740,1.722133
559842234,1.737441
559885926,1.706825
559930614,1.666541
559974691,1.677821
560017156,1.764028
560067161,1.540806
560109917,1.315166
560158260,1.151563
560247521,1.363507
560292859,1.467489
560338635,1.639098
560382458,1.660902
560426573,1.673793
560473613,1.697157
560523998,1.777725
560571112,1.647155
560619216,1.611705
560664844,1.631847
560712332,1.589146
560758193,1.729384
560808844,1.546445
560858143,2.131517
560900942,1.021799
560947369,1.216823
561034715,1.541611
561078173,1.757583
561123233,1.722939
561168497,1.666541
561214577,1.705214
561263172,1.8664
561309383,1.79545
561357593,1.790616
561406759,1.78417
561451109,1.715688
561500560,1.897821
561544835,1.685072
561593319,1.489242
561637460,3.24038
561682369,1.25474
561729269,1.231325
561821554,1.721328
561867322,1.805118
561912762,1.577061
561959133,1.685878
562007337,1.762417
562056745,1.753555
562104875,1.773697
562154050,1.679432
562202211,1.796255
562251225,1.798673
562299391,1.75436
562346431,1.642321
562394980,3.231518
562441091,1.267631
562489943,1.344976
562537808,1.518247
562628106,1.824454
562676972,1.672987
562727204,1.731801
562779153,1.768862
562829061,1.713271
562881641,1.787393
562929463,1.727773
562978807,1.912323
563030990,1.610094
563081647,1.617345
563133674,2.079954
563185689,1.293413
563239372,1.446541
563290931,1.56417
563338763,1.755166
563388972,1.665736
563485746,1.793838
563539055,1.735024
563599244,1.681044
563650783,1.619762
563703713,1.722939
563755090,1.762417
563813390,1.51019
563865098,3.235546
563915084,1.075024
563967180,1.207155
564020409,1.44493
564071801,1.586729
564123807,1.642321
564176232,1.596397
564229345,1.682655
564282580,1.764028
564376549,1.632653
564431059,1.555308
564485406,1.67057
564538747,1.830899
564597214,1.606871
564648758,1.40379
564700998,1.020993
564754292,1.173316
564809157,1.394122
564870646,1.67621
564923105,1.797061
564976903,1.672181
565032334,1.764834
565085262,1.884124
565138575,1.710854
565192920,1.642321
565291828,1.711659
565345172,1.961469
565401076,1.633458
565454332,2.287869
565507152,1.241044
565561834,1.354644
565617753,1.516635
565673918,1.712465
565725468,1.716493
565777239,1.637487
565831879,1.707631
565886072,1.751943
565942092,1.823648
565997974,1.793838
566032967,1.726162
566068071,1.76
566143298,1.971138
566183429,1.66493
566224501,1.587535
566259100,3.230712
566295511,1.020993
566329992,1.221657
566363400,1.37962
566397902,1.461044
566433329,1.517441
566472241,1.621373
566508811,1.643932
566548917,1.62943
566584473,1.734219
566619093,1.740664
566656092,1.703603
566691460,1.65929
566769518,1.639098
566808263,1.673793
566842963,1.693934
566880273,1.793838
566923851,1.892181
566959971,1.631847
566997901,1.553697
567034400,3.235546
567073038,0.9444541
567110848,1.222463
567147883,1.367535
567187650,1.523081
567223824,1.705214
567266422,1.759194
567306063,1.709242
567342447,1.73019
567423349,1.787393
567460017,1.73019
567498243,1.689906
567536932,1.716493
567574286,1.727773
567613137,1.718105
567648701,1.710048
567685551,1.798673
567722158,1.673793
567759041,1.552891
567797751,1.267631
567834300,3.175926
567871052,1.137061
567908061,1.18943
567944648,1.370758
567982748,1.536777
568066844,1.71891
568106629,1.681044
568143947,1.766445
568184673,1.799478
568224078,1.814786
568265311,1.740664
568306058,1.722133
568345712,1.719716
568383952,1.729384
568421098,1.701991
568463999,1.822843
568504274,1.744692
568544125,1.735024
568587693,1.853458
568629751,1.026633
568669675,1.190236
568757244,1.492465
568796797,1.637487
568840688,1.712465
568882254,1.641515
568925446,1.709242
568969771,1.696352
569010614,1.704408
569049035,1.709242
569087480,1.740664
569133415,1.640709
569175769,1.655262
569217597,1.729384
569259438,1.79545
569300383,1.591563
569341529,1.394122
569387716,2.280618
569476073,1.233742
569514561,1.352227
569554993,1.525498
569597065,1.663319
569637486,1.610899
569678920,1.652039
569720077,1.753555
569764176,1.81398
569806184,1.786587
569847997,1.70038
569890280,1.672181
569934162,1.678627
569975883,1.780948
570020385,1.776114
570061121,1.712465
570107991,1.820426
570192704,1.242655
570236458,1.419904
570279646,1.647155
570325857,1.816397
570367805,1.776114
570412132,1.652845
570454835,1.722133
570498156,1.767251
570543783,1.780948
570588017,1.710854
570634766,1.642321
570679608,1.709242
570725314,1.9091
570771117,1.548057
570814541,1.541611
570860385,3.239574
570951366,1.228908
570996772,1.461849
571041118,1.719716
571088224,1.793838
571133575,1.62943
571181167,1.764834
571226387,1.821231
571273360,1.729384
571322456,1.728579
571369635,1.621373
571415194,1.621373
571464907,1.776114
571513050,1.667347
571561446,1.589952
571611140,2.104125
571660809,1.162843
571750932,1.319194
571796007,1.522275
571842047,1.783365
571892226,1.577061
571943142,1.739858
571999808,1.788199
572047886,1.753555
572097228,1.682655
572144830,1.705214
572197233,1.645544
572246580,1.744692
572293021,1.696352
572341288,1.63507
572389027,2.013838
572438303,1.066967
572486539,1.192653
572578209,1.531138
572629114,1.719716
572678009,1.669764
572729323,1.729384
572778885,1.796255
572829207,1.719716
572877468,1.697157
572932339,1.60526
572979392,1.678627
573027838,1.684266
573078398,1.719716
573130454,1.798673
573185314,1.680238
573232278,2.402275
573280576,1.176539
573332379,1.236965
573424347,1.729384
573474680,1.779336
573525921,1.689906
573576099,1.689906
573626069,1.81962
573676946,1.834122
573727582,1.790616
573776098,1.712465
573831130,1.613317
573883775,1.719716
573936397,1.801089
573985616,1.662513
574034742,1.394122
574087624,1.482797
574138635,1.245878
574191485,1.336113
574289082,1.714882
574340979,1.714076
574391125,1.610094
574447283,1.714076
574503170,1.743081
574553886,1.634264
574606434,1.704408
574658098,1.67621
574707598,1.661707
574759221,1.818009
574810800,1.54564
574866098,3.017963
574917438,1.22488
574977149,1.29019
575029638,1.491659
575083032,1.822843
575177594,1.692323
575230011,1.683461
575280324,1.793838
575335594,1.671376
575385482,1.738247
575439778,1.764834
575499758,1.743081
575553911,1.831705
575608058,1.557725
575662809,2.062179
575717278,1.147535
575772621,1.126587
575827415,1.426349
575884142,1.72455
575938381,1.665736
575997089,1.710048
576099322,1.809952
576151890,1.745498
576207192,1.798673
576260995,1.812369
576316114,1.712465
576371930,1.757583
576457503,1.356255
576490342,3.241185
576526256,1.184596
576559298,1.203932
576594377,1.234548
576629631,1.405402
576664422,1.650428
576698735,1.76
576731215,1.626207
576766089,1.614928
576843157,1.740664
576877334,1.729384
576913483,1.713271
576948726,1.727773
576985250,1.769668
577019921,1.776114
577056992,1.749526
577092837,1.711659
577128525,1.769668
577161979,1.923603
577197995,1.673793
577236991,1.596397
577272449,1.336919
577310311,2.220142
577348555,1.22488
577387690,1.322417
577469164,1.585924
577510731,1.690712
577546319,1.647155
577586314,1.627819
577623886,1.721328
577663183,1.776919
577703547,1.78417
577742337,1.758389
577778587,1.728579
577818059,1.709242
577857979,1.696352
577897384,1.770474
577936186,1.685878
577972132,1.552085
578009035,1.320806
578047335,2.922087
578132143,1.240238
578172676,1.398151
578208110,1.573838
578246739,1.698769
578284718,1.712465
578321120,1.753555
578359429,1.79545
578396658,1.792227
578434155,1.741469
578473030,1.672987
578511741,1.625402
578550236,1.65929
578593118,1.673793
578631330,1.67057
578674316,1.880902
578712316,1.541611
578799395,2.785878
578837222,0.9758755
578875487,1.146729
578915122,1.267631
578957646,1.497299
578998178,1.679432
579036954,1.777725
579076213,1.654456
579118447,1.697157
579161079,1.789004
579201035,1.81398
579242280,1.811563
579282235,1.775308
579323130,1.743081
579364008,1.714882
579402690,1.703603
579486153,1.79545
579525930,1.597203
579567159,1.411847
579609204,3.205736
579651457,1.100806
579692828,1.190236
579737971,1.426349
579782077,1.660902
579826021,1.755166
579871026,1.585924
579914417,1.660902
579955140,1.718105
579999415,1.805923
580042115,1.774502
580085630,1.697963
580129805,1.60526
580219973,1.720522
580263772,1.81398
580305561,1.647155
580348020,1.590758
580392533,3.221044
580438460,1.225685
580491970,1.273271
580535846,1.486825
580578728,1.680238
580623035,1.84379
580673626,1.618151
580717329,1.690712
580758997,1.751943
580803279,1.774502
580847231,1.699574
580892604,1.695546
580979104,1.772891
581023907,1.796255
581069978,1.696352
581116295,1.696352
581163070,2.837441
581209089,0.967013
581253241,1.270048
581298238,1.506162
581348250,1.611705
581391626,1.744692
581436478,1.693129
581483804,1.738247
581532280,1.722133
581585571,1.755166
581628828,1.673793
581675310,1.679432
581769129,1.660096
581812230,1.727773
581858441,1.712465
581904885,1.585924
581950075,2.375688
581996126,1.117725
582042962,1.28455
582088794,1.380426
582135337,1.646349
582182628,1.82526
582231387,1.571421
582277560,1.687489
582322686,1.747915
582366887,1.696352
582415944,1.703603
582462891,1.711659
582551658,1.641515
582600942,1.735024
582646109,1.782559
582692379,1.525498
582744629,1.449764
582797814,1.525498
582846326,1.144312
582896529,1.357061
582943150,1.556919
582989825,1.689101
583037581,1.709242
583086258,1.647961
583136455,1.800284
583183960,1.805118
583236383,1.768057
583285079,1.697157
583377389,1.731801
583427676,1.65929
583476232,1.736635
583523388,1.835733
583576209,1.757583
583625137,1.621373
583674723,3.239574
583730660,1.122559
583782356,1.358672
583833449,1.538389
583884686,1.811563
583935732,1.701991
583987283,1.602037
584038010,1.803506
584091257,1.692323
584141804,1.733413
584241371,1.732607
584294715,1.679432
584344685,1.729384
584398081,1.689101
584447282,1.557725
584501478,3.238769
584553843,1.129004
584606357,1.266825
584656188,1.549668
584709173,1.692323
584759079,1.695546
584813734,1.643932
584864903,1.690712
584916794,1.768057
584966081,1.710048
585015039,1.72455
585108727,1.654456
585160169,1.842985
585212375,1.591563
585265735,1.357867
585316857,1.466683
585371245,1.244266
585423830,1.457015
585477843,1.727773
585531605,1.757583
585584396,1.640709
585635674,1.704408
585687604,1.652039
585741163,1.723745
585792732,1.680238
585844820,1.646349
585900074,1.72455
585999844,1.638292
586053197,1.359478
586111787,0.9508995
586164563,1.238627
586222432,1.491659
586276998,1.758389
586331642,1.644738
586387647,1.627013
586443410,1.818009
586496520,1.791421
586547999,1.647155
586605287,1.674598
586661623,1.751943
586717389,1.8664
586800397,1.637487
586834903,1.611705
586917442,1.234548
586954421,1.282939
586985149,1.344976
587019264,1.581089
587052618,1.708437
587086608,1.70038
587121134,1.662513
587154819,1.677821
587189293,1.624596
587224672,1.699574
587259622,1.814786
587294616,1.786587
587331123,1.681849
587364413,1.642321
587402531,1.657679
587437752,1.693129
587516354,1.88493
587551959,1.581089
587586187,1.547251
587621617,1.458627
587661658,1.602843
587698074,1.188624
587734999,1.240238
587769934,1.299052
587803834,1.470712
587841092,1.688295
587879919,1.78981
587917081,1.729384
587952989,1.725356
587989704,1.730996
588026769,1.727773
588064295,1.744692
588146994,1.677821
588184730,1.705214
588221990,1.768057
588258485,1.792227
588297495,1.943745
588335171,1.622179
588373696,1.595592
588413924,2.24109
588452796,1.057299
588495189,1.258769
588534427,1.394928
588572090,1.477963
588610826,1.610899
588649713,1.692323
588688441,1.566587
588730239,1.547251
588815697,1.767251
588854464,1.755166
588892411,1.71891
588929786,1.714076
588970996,1.70038
589014509,1.750332
589063710,1.780948
589105538,1.594786
589147292,1.562559
589189015,2.199194
589233708,1.072607
589273770,1.312749
589311774,1.405402
589352388,1.589146
589394230,1.756777
589435869,1.809146
589523299,1.696352
589564414,1.749526
589605591,1.695546
589649451,1.662513
589692935,1.705214
589735812,1.750332
589778304,1.75436
589821770,1.847013
589868754,1.555308
589909170,1.563365
589950949,2.730286
589995367,1.077441
590039671,1.275688
590088076,1.399762
590128062,1.581089
590170727,1.778531
590259188,1.706825
590299034,1.775308
590341432,1.797061
590385267,1.696352
590426703,1.653651
590467625,1.628624
590512200,1.689906
590552041,1.677821
590592505,1.766445
590638081,1.732607
590682877,1.540806
590724862,1.589146
590766102,0.9686243
590807634,1.137061
590852878,1.323223
590894919,1.529526
590981197,1.722939
591025753,1.593175
591067654,1.672987
591107433,1.72455
591156750,1.840568
591205895,1.710048
591251173,1.715688
591296852,1.739052
591338661,1.750332
591381226,1.73019
591425541,1.868817
591470928,1.607677
591519442,1.455404
591564207,2.885781
591617175,1.246683
591663821,1.277299
591751144,1.687489
591799345,1.701991
591844187,1.576255
591887820,1.660096
591936883,1.813175
591980210,1.751138
592026150,1.631041
592078378,1.715688
592124225,1.602037
592172941,1.697157
592218221,1.771279
592266738,1.593175
592314481,1.635875
592361811,3.239574
592411043,1.199098
592457707,1.357061
592554326,1.769668
592603652,1.710854
592650597,1.642321
592698396,1.741469
592742572,1.736635
592792025,1.738247
592840613,1.762417
592889164,1.768862
592935081,1.786587
592984207,1.653651
593030040,1.776919
593079224,1.588341
593129030,1.332891
593176965,1.736635
593225142,1.177345
593271596,1.406207
593359086,1.712465
593406641,1.655262
593454897,1.725356
593504436,1.673793
593553505,1.798673
593602232,1.686683
593650880,1.685072
593699247,1.687489
593749218,1.677821
593798029,1.929242
593845426,1.531138
593894508,1.526304
593946615,1.792227
593995880,1.276493
594044075,1.335308
594094536,1.660096
594191607,1.710048
594241978,1.65929
594295712,1.872845
594343958,1.763223
594400411,1.708437
594450667,1.759194
594502417,1.747109
594553862,1.872845
594604190,1.82526
594651305,1.619762
594703825,1.996114
594758475,1.245072
594811129,1.29583
594863353,1.444124
594914826,1.792227
594966368,1.656873
595066343,1.719716
595120302,1.734219
595170367,1.709242
595222074,1.680238
595273417,1.753555
595325226,1.642321
595376669,1.768862
595427257,1.731801
595478928,1.590758
595531174,3.155784
595583162,1.172511
595637163,1.299052
595691433,1.518247
595742428,1.681849
595798518,1.666541
595849562,1.654456
595949690,1.663319
596002283,1.585924
596055628,1.674598
596108015,1.612511
596161873,1.606065
596215336,1.697157
596266925,1.801089
596317175,1.627819
596368949,1.628624
596423252,1.020188
596476202,1.283745
596531165,1.477157
596585070,1.666541
596639741,1.739052
596694494,1.731801
596746975,1.715688
596845887,1.65929
596897490,1.709242
596950922,1.743886
597003466,1.655262
597057820,1.773697
597112180,1.645544
597199284,3.231518
597235488,1.103223
597272650,1.300664
597308328,1.317583
597341983,1.43924
597378677,1.620568
597415251,1.799478
597451072,1.756777
597486580,1.652845
597524782,1.660096
597608928,1.751943
597641352,1.66493
597675175,1.729384
597712425,1.726967
597751875,1.747109
597797746,1.731801
597831484,1.771279
597866580,1.78417
597902665,1.750332
597944250,1.552085
597983459,1.290996
598018244,3.233129
598055742,1.26038
598091026,1.268437
598127694,1.345782
598164878,1.467489
598242722,1.769668
598280951,1.628624
598320548,1.640709
598360311,1.715688
598399085,1.786587
598437755,1.753555
598475539,1.745498
598518719,1.702797
598554775,1.763223
598592578,1.769668
598632844,1.756777
598673247,1.88493
598718363,1.614122
598755437,1.655262
598794650,2.052511
598835079,1.02341
598919381,1.287773
598957586,1.492465
598996658,1.703603
599034796,1.828483
599072819,1.70602
599111662,1.725356
599148446,1.755166
599186685,1.753555
599226932,1.755166
599267541,1.722133
599306517,1.660096
599343670,1.621373
599379864,1.668153
599421269,1.655262
599460695,1.726967
599500168,1.745498
599584657,1.286967
599623228,2.933367
599661678,1.130616
599704004,1.216823
599749248,1.452987
599791090,1.672987
599834202,1.853458
599874336,1.73019
599913081,1.721328
599954931,1.764028
599995995,1.798673
600039420,1.719716
600080037,1.660902
600126919,1.672181
600167775,1.669764
600208169,1.70602
600295648,1.927631
600336513,1.589146
600375178,1.610899
600419295,3.23474
600460438,1.100806
600501372,1.147535
600549719,1.417487
600593261,1.622985
600636460,1.748721
600678585,1.619762
600722849,1.588341
600767905,1.718105
600812208,1.805923
600854756,1.772085
600896546,1.734219
600944457,1.643932
601033719,1.832511
601076641,1.762417
601121940,1.548057
601163193,1.465878
601207494,1.356255
601253658,1.307915
601299766,1.35545
601341653,1.470712
601384730,1.620568
601425890,1.654456
601470896,1.706825
601514180,1.763223
601558106,1.762417
601601450,1.67057
601643740,1.614122
601685684,1.635875
601774580,1.723745
601818639,1.870428
601864357,1.539194
601909820,1.577061
601956563,3.227489
602001362,1.097583
602048003,1.327251
602094125,1.567393
602139105,1.691517
602182788,1.753555
602225249,1.627819
602272694,1.769668
602318447,1.743886
602363911,1.734219
602411621,1.786587
602459098,1.687489
602546306,1.710048
602598323,1.87929
602643208,1.532749
602692394,1.400568
602739261,1.361089
602787906,1.229714
602836048,1.378009
602882381,1.490854
602928003,1.773697
602971754,1.738247
603021416,1.640709
603070171,1.78981
603118105,1.737441
603167187,1.712465
603216530,1.715688
603269086,1.739052
603365364,1.815592
603411561,1.643932
603459466,1.540806
603506650,3.233934
603554285,1.195876
603601936,1.220046
603649246,1.503745
603696824,1.666541
603746829,1.692323
603794776,1.627819
603844421,1.662513
603896217,1.755166
603943299,1.689101
603993805,1.713271
604040871,1.640709
604090180,1.774502
604182487,1.54564
604230733,1.386065
604281009,1.294218
604331670,1.311138
604380088,1.366729
604427008,1.622985
604474085,1.771279
604523707,1.633458
604575246,1.686683
604623644,1.70602
604674801,1.731801
604726833,1.715688
604777923,1.651234
604828087,1.769668
604876959,1.620568
604927463,1.604454
605021619,1.129004
605072163,1.390094
605121095,1.516635
605173616,1.801089
605224135,1.744692
605274709,1.744692
605327760,1.834122
605384621,1.758389
605436975,1.687489
605487830,1.747915
605542894,1.682655
605596237,1.892181
605649643,1.631041
605703102,1.573033
605759268,1.04038
605812153,1.220851
605907033,1.638292
605957551,1.665736
606011442,1.687489
606074864,1.745498
606137850,1.709242
606188442,1.753555
606242869,1.646349
606295874,1.67057
606353357,1.968721
606407943,1.660902
606459557,1.410236
606513135,1.052465
606565332,1.250712
606619914,1.398956
606672373,1.744692
606725371,1.714882
606825271,1.743886
606881895,1.701991
606935983,1.696352
606990783,1.76
607045093,1.712465
607100471,1.834928
607160560,1.56417
607213734,2.942229
607268231,1.298247
607325382,1.366729
607381675,1.51583
607444916,1.689101
607498704,1.496493
607552113,1.656068
607607583,1.76
607691672,1.78981
607769333,1.809146
607803779,1.814786
607837757,1.783365
607875957,1.570616
607908706,1.650428
607941452,2.569906
607979121,0.9613732
608017453,1.196681
608052510,1.378009
608085903,1.519052
608117693,1.585924
608154782,1.789004
608189882,1.864788
608225303,1.728579
608262671,1.677821
608297138,1.680238
608377841,1.642321
608419254,1.633458
608459506,1.62943
608495962,1.672987
608535223,1.749526
608571031,1.929242
608607779,1.783365
608643540,1.582701
608679447,1.318389
608718868,3.232323
608754291,1.235354
608798850,1.194264
608835647,1.337725
608870716,1.577061
608909710,1.770474
608945482,1.796255
609031418,1.747109
609068376,1.805118
609106042,1.815592
609149253,1.771279
609187195,1.729384
609227443,1.727773
609264246,1.693934
609302839,1.67621
609343214,1.900238
609383261,1.601231
609422465,1.59962
609461849,2.619052
609505511,1.06455
609546694,1.246683
609585035,1.388482
609624660,1.552891
609705473,1.839762
609747211,1.722939
609788867,1.716493
609829502,1.762417
609866815,1.771279
609907794,1.799478
609948071,1.769668
609987490,1.756777
610026755,1.760806
610065947,1.764028
610103319,1.895404
610141005,1.566587
610179171,1.529526
610218810,1.723745
610260969,1.131421
610301980,1.174928
610385906,1.51019
610426535,1.635875
610466905,1.714882
610509290,1.677015
610551158,1.693934
610591991,1.745498
610631449,1.779336
610670646,1.73583
610713837,1.672987
610754516,1.683461
610794806,1.673793
610837445,1.717299
610881355,1.743886
610921657,1.589146
610968170,1.593175
611007814,1.602037
611099438,1.32
611141059,1.522275
611185416,1.771279
611228539,1.822037
611269808,1.726162
611309423,1.769668
611352106,1.801089
611397940,1.755972
611442471,1.73583
611486474,1.743886
611528583,1.742275
611570605,1.709242
611619740,1.746303
611666616,1.726162
611707011,1.644738
611750623,1.593175
611838393,1.169288
611881919,1.344976
611925168,1.568199
611969583,1.735024
612012830,1.697963
612058637,1.602037
612103921,1.725356
612147581,1.779336
612193339,1.704408
612237108,1.645544
612283468,1.706825
612325740,1.737441
612372609,1.685072
612416414,1.822037
612461603,1.588341
612505287,1.490854
612599560,1.121753
612645059,1.322417
612690806,1.481186
612733411,1.62943
612776905,1.683461
612823985,1.708437
612869647,1.76564
612916663,1.723745
612962342,1.779336
613007180,1.771279
613053082,1.662513
613097762,1.621373
613146757,1.767251
613190543,1.721328
613235911,1.519052
613280419,1.553697
613374006,1.156397
613420657,1.369952
613470085,1.59962
613517686,1.685878
613566652,1.712465
613613562,1.619762
613660187,1.743886
613709666,1.750332
613758795,1.665736
613809548,1.755166
613858821,1.679432
613909713,1.818814
613956712,1.614928
614003655,1.653651
614050924,3.233129
614099490,1.236965
614196732,1.4336
614254160,1.650428
614302698,1.725356
614352781,1.643932
614402947,1.743886
614457389,1.672181
614506178,1.755166
614553620,1.689101
614603056,1.737441
614652553,1.875262
614701929,1.622179
614750399,1.372369
614799973,1.407819
614850384,1.253129
614901023,1.469906
614951704,1.63507
615046860,1.755166
615097464,1.719716
615149953,1.794644
615204076,1.793033
615252383,1.680238
615302408,1.753555
615353238,1.698769
615405650,2.011421
615463832,1.658485
615513989,1.727773
615565271,1.172511
615618543,1.278105
615668431,1.540806
615720144,1.743081
615771067,1.76
615822784,1.734219
615921587,1.791421
615971074,1.686683
616022414,1.735024
616078393,1.668153
616131955,1.652845
616185411,1.677821
616235489,1.479574
616284154,2.918059
616337831,1.174928
616389556,1.290996
616443080,1.586729
616497413,1.732607
616548345,1.751943
616598498,1.696352
616656740,1.774502
616714630,1.686683
616812243,1.622179
616867237,1.697157
616919912,1.835733
616973241,1.527915
617027356,1.397345
617081674,1.153175
617136370,1.211183
617188278,1.468295
617247483,1.691517
617301615,1.730996
617353475,1.59398
617408547,1.710048
617461861,1.750332
617514094,1.62943
617565642,1.71891
617621675,1.719716
617727796,1.813175
617782737,1.674598
617837204,3.232323
617893192,1.177345
617951114,1.35545
618007939,1.611705
618062857,1.776114
618149423,1.638292
618189048,1.73019
618226043,1.793838
618260702,1.76
618294387,1.618956
618329291,1.645544
618365541,1.679432
618403185,1.699574
618438327,1.677821
618516321,1.606871
618552893,1.568199
618586194,1.427155
618621966,2.728675
618656695,1.143506
618694331,1.164454
618730130,1.317583
618763512,1.532749
618799466,1.674598
618832478,1.701991
618866912,1.693934
618903077,1.747915
618938871,1.798673
618972838,1.801895
619010726,1.78981
619045941,1.755166
619127332,1.712465
619164680,1.763223
619201255,1.761611
619236389,1.710854
619271313,1.743886
619311163,1.655262
619347396,1.639098
619384360,1.43924
619423464,2.327347
619463282,1.228908
619500196,1.303886
619542238,1.496493
619576873,1.590758
619618564,1.816397
619656851,1.731801
619696703,1.635875
619778892,1.78417
619818574,1.799478
619853902,1.710048
619889213,1.703603
619930461,1.657679
619970678,1.633458
620010322,1.643932
620049081,1.66493
620087853,1.834928
620131785,1.50455
620172673,1.494076
620208598,2.495784
620247552,0.9412313
620288584,1.111279
620328117,1.252323
620367548,1.427961
620450361,1.655262
620488921,1.597203
620530773,1.618151
620572255,1.67621
620611883,1.714882
620652014,1.704408
620692804,1.707631
620734910,1.70038
620773565,1.689101
620815902,1.742275
620854255,1.768862
620895219,1.913129
620935650,1.601231
620979055,1.513413
621020157,3.192845
621061644,1.286162
621145379,1.477157
621186882,1.597203
621230148,1.698769
621270760,1.62943
621312397,1.613317
621353917,1.678627
621395189,1.743081
621436847,1.730996
621475821,1.710854
621518687,1.743081
621561025,1.773697
621603293,1.766445
621644514,1.777725
621686740,1.880096
621728036,1.562559
621774032,1.35545
621863605,1.207155
621909120,1.297441
621952716,1.467489
621994693,1.640709
622037087,1.741469
622079329,1.734219
622123575,1.785782
622167545,1.75436
622214119,1.713271
622257606,1.710854
622300245,1.702797
622343373,1.706825
622388569,1.622179
622436174,1.695546
622491267,1.76
622534565,1.577867
622625128,1.148341
622668409,1.156397
622717237,1.397345
622763158,1.610094
622808286,1.714882
622853037,1.654456
622898396,1.691517
622944881,1.738247
622990157,1.680238
623036062,1.744692
623081713,1.760806
623129930,1.628624
623178098,1.70602
623225407,1.653651
623274006,1.745498
623320310,1.596397
623416115,3.071943
623460328,1.194264
623506756,1.269242
623555920,1.487631
623604913,1.693934
623657748,1.698769
623703720,1.699574
623750767,1.678627
623799720,1.783365
623845528,1.678627
623890323,1.612511
623936144,1.677015
623981402,1.705214
624027925,1.664124
624074899,1.870428
624121842,1.627819
624215488,1.044408
624264858,1.182985
624314308,1.396539
624360118,1.677015
624405943,1.84379
624453531,1.699574
624500900,1.772891
624550366,1.739858
624600580,1.805923
624648927,1.65929
624695519,1.70038
624745922,1.690712
624800647,1.792227
624850802,1.756777
624900949,1.683461
624949218,1.540806
625042025,1.272465
625091281,1.26602
625142246,1.550474
625195050,1.743081
625242772,1.748721
625297731,1.744692
625346767,1.749526
625396758,1.809146
625447874,1.637487
625496957,1.73583
625544210,1.693934
625593967,1.692323
625646154,1.750332
625701661,1.70038
625753571,1.614122
625804991,3.223461
625898532,1.390094
625951394,1.47474
626005577,1.714882
626056451,1.734219
626106507,1.645544
626162732,1.788199
626215378,1.766445
626265349,1.633458
626317689,1.710048
626369161,1.638292
626423478,1.701991
626476288,1.861565
626528073,1.548862
626579994,1.394122
626632268,1.12981
626683657,1.201515
626781142,1.56417
626834984,1.702797
626886227,1.54564
626938574,1.712465
626989254,1.685072
627041937,1.737441
627094262,1.761611
627146387,1.72455
627200644,1.833316
627253220,1.794644
627304717,1.835733
627357565,1.665736
627409312,2.613413
627463796,1.191041
627517814,1.365118
627569925,1.477157
627666513,1.681044
627717735,1.725356
627772522,1.769668
627825610,1.747109
627879273,1.788199
627936401,1.751943
627993076,1.751138
628046623,1.70038
628105444,1.709242
628158266,1.615734
628216500,3.241185
628271361,1.096777
628327901,1.203932
628382227,1.438434
628438312,1.673793
628491846,1.541611
628629742,1.673793
628665785,1.701991
628700657,1.749526
628737064,1.743886
628771816,1.706825
628811506,1.692323
628850057,1.705214
628883447,1.842179
628918547,1.622179
628952985,1.616539
628987981,1.41507
629022715,2.49659
629055707,1.255546
629089750,1.209572
629127088,1.303081
629164094,1.468295
629244294,1.713271
629282012,1.622985
629316201,1.712465
629354083,1.736635
629390228,1.743081
629428402,1.732607
629464171,1.696352
629500751,1.741469
629536300,1.807535
629575192,1.801895
629611684,1.772085
629648957,1.894598
629682728,1.728579
629719989,1.66493
629758325,1.468295
629794597,2.968817
629878231,1.372369
629914514,1.530332
629952287,1.66493
629989419,1.741469
630025282,1.710048
630064914,1.633458
630100829,1.704408
630138352,1.801089
630175099,1.834122
630217245,1.797061
630255284,1.764028
630294013,1.715688
630333901,1.741469
630375086,1.751138
630412775,1.852653
630450451,1.643127
630534814,1.820426
630575297,0.9476768
630616338,1.203127
630656700,1.32564
630697725,1.497299
630737839,1.682655
630775281,1.811563
630814506,1.70602
630855792,1.726967
630899637,1.755166
630949757,1.737441
630989346,1.689906
631030189,1.696352
631070464,1.710048
631114081,1.751138
631154549,1.753555
631238749,1.73583
631278664,1.620568
631320705,1.360284
631361635,1.839762
631402753,1.106445
631444115,1.227297
631485623,1.383648
631527920,1.611705
631573202,1.793838
631616246,1.693934
631658967,1.699574
631702516,1.734219
631748641,1.768862
631789078,1.722133
631829423,1.689101
631873819,1.734219
631962983,1.644738
632010805,1.782559
632054052,1.701991
632097041,1.611705
632139790,1.94455
632182138,0.9927947
632225461,1.18379
632267857,1.342559
632308867,1.517441
632353509,1.771279
632394179,1.775308
632434816,1.697963
632479656,1.672181
632523639,1.704408
632565510,1.685878
632607101,1.671376
632692479,1.749526
632737575,1.741469
632780723,1.650428
632823927,1.690712
632869292,1.742275
632913356,1.660902
632955666,1.497299
633004247,1.131421
633052002,1.289384
633097365,1.414264
633144477,1.531943
633188205,1.734219
633231449,1.764834
633277590,1.681044
633322809,1.66493
633371518,1.780948
633461174,1.677821
633512156,1.764028
633556222,1.768057
633599640,1.709242
633646236,1.744692
633691225,1.704408
633733979,1.689101
633778999,2.626303
633825033,1.000851
633877325,1.28455
633923002,1.386065
633970317,1.672987
634015483,1.813175
634063974,1.610094
634113016,1.758389
634159692,1.73019
634252469,1.738247
634303302,1.62943
634351462,1.70602
634397231,1.652039
634445038,1.613317
634490006,1.895404
634538326,1.573033
634588333,1.369952
634637490,0.9927947
634684379,1.177345
634732198,1.442463
634778011,1.59398
634827076,1.797061
634874132,1.731801
634921078,1.618956
634968289,1.725356
635059681,1.65929
635108005,1.678627
635154852,1.684266
635202389,1.628624
635252401,1.742275
635300780,1.733413
635348973,1.675404
635399371,1.556113
635447931,3.241185
635495443,1.215212
635544221,1.222463
635592021,1.51019
635640462,1.667347
635687514,1.768057
635738166,1.573033
635788331,1.688295
635883140,1.697157
635934257,1.747915
635985492,1.697963
636035333,1.741469
636091184,1.789004
636140226,1.838956
636194780,1.619762
636245670,1.642321
636299659,0.9517052
636352045,1.311943
636404084,1.397345
636450919,1.689101
636505669,1.677015
636558136,1.592369
636610167,1.746303
636661220,1.710854
636756492,1.736635
636812987,1.78417
636865736,1.727773
636915107,1.827677
636965944,1.704408
637016055,1.624596
637066836,3.236351
637117458,1.204738
637169632,1.394122
637221233,1.491659
637276544,1.747109
637329916,1.738247
637380697,1.678627
637434120,1.81398
637487166,1.771279
637541643,1.640709
637637809,1.680238
637694000,1.743886
637746160,1.871234
637797305,1.560948
637848848,1.89057
637904394,1.145118
637957573,1.206349
638010255,1.495688
638061325,1.634264
638114754,1.680238
638169585,1.710854
638223484,1.698769
638278386,1.673793
638332286,1.735024
638386612,1.716493
638440473,1.615734
638536763,1.714076
638590779,1.639098
638642441,1.521469
638695571,3.066303
638748869,1.208766
638804920,1.330474
638860880,1.514218
638918095,1.721328
639005555,1.711659
639038224,1.725356
639072081,1.821231
639106910,1.767251
639141892,1.630236
639176753,1.610899
639213141,1.664124
639251121,1.732607
639332577,1.771279
639366644,1.894598
639401124,1.569004
639438548,1.525498
639476729,1.658485
639522678,0.7550698
639557096,0.8993362
639593073,1.087109
639630433,1.266825
639672122,1.467489
639707891,1.644738
639743437,1.554502
639779968,1.508579
639816239,1.585924
639853740,1.614928
639890309,1.677821
639972008,1.702797
640008860,1.750332
640047014,1.73019
640085163,1.699574
640123799,1.716493
640162196,1.851847
640199946,1.547251
640242772,1.561753
640279041,3.230712
640316612,0.9839323
640358211,1.218434
640396924,1.33128
640443111,1.495688
640480113,1.615734
640518243,1.669764
640558275,1.603648
640641548,1.775308
640682203,1.799478
640720201,1.723745
640759738,1.669764
640799111,1.67057
640837643,1.632653
640873833,1.762417
640916785,1.640709
640956990,1.529526
640997522,1.29583
641034404,2.51512
641069968,1.283745
641110524,1.332891
641148219,1.486825
641189197,1.593175
641230596,1.70602
641314711,1.669764
641353012,1.738247
641396348,1.739052
641441457,1.714882
641482961,1.693129
641526059,1.747109
641565972,1.722939
641604570,1.806729
641644449,1.838151
641686696,1.645544
641731052,1.336113
641771504,2.524788
641819088,1.076635
641859726,1.232131
641899815,1.415876
641942023,1.620568
642026727,1.753555
642068149,1.787393
642108844,1.844596
642150593,1.81962
642198452,1.673793
642239921,1.666541
642283865,1.747109
642326507,1.786587
642370302,1.953413
642414776,1.537583
642458719,1.466683
642501968,3.239574
642547435,1.236965
642590966,1.300664
642633327,1.435212
642675198,1.60526
642761642,1.631847
642807286,1.739858
642851252,1.794644
642895179,1.753555
642938467,1.688295
642982827,1.711659
643026583,1.728579
643071208,1.686683
643115104,1.688295
643158813,1.581089
643202462,1.573838
643244450,2.062179
643287618,0.9936003
643331229,1.180568
643374600,1.289384
643418430,1.486825
643508590,1.705214
643553278,1.610094
643598986,1.622985
643643201,1.73019
643689278,1.726162
643733484,1.62943
643778163,1.612511
643821634,1.652845
643864676,1.834122
643911965,1.56981
643955579,1.527915
644002749,3.236351
644051312,1.196681
644099568,1.236965
644144556,1.491659
644196113,1.577061
644285264,1.655262
644336555,1.627819
644381297,1.716493
644428587,1.771279
644475725,1.655262
644520994,1.693129
644566275,1.75436
644617312,1.859149
644664527,1.654456
644712345,1.487631
644760837,2.308817
644807893,1.274076
644860891,1.407819
644911469,1.606871
644957124,1.726967
645004455,1.755972
645099261,1.756777
645146726,1.826066
645193855,1.705214
645239003,1.685878
645285503,1.753555
645335134,1.673793
645384408,1.935688
645432087,1.581089
645481949,1.459432
645530344,0.9774868
645581813,1.253129
645628324,1.479574
645676939,1.596397
645723404,1.831705
645772242,1.642321
645820255,1.67057
645917541,1.712465
645966481,1.751138
646015926,1.640709
646063591,1.722939
646112824,1.669764
646163548,1.853458
646212669,1.548862
646264606,1.972749
646313092,0.9911834
646363144,1.274076
646413027,1.40379
646462695,1.706825
646513752,1.748721
646562298,1.697157
646612715,1.693129
646662368,1.809952
646759536,1.70038
646809016,1.722133
646861849,1.689906
646914604,1.686683
646966335,1.653651
647016495,1.529526
647069440,3.230712
647122489,1.123365
647175657,1.169288
647228775,1.445736
647283092,1.608482
647335552,1.434406
647386218,1.581895
647437440,1.556919
647490762,1.573838
647546553,1.696352
647655831,1.564976
647708280,1.665736
647760567,1.382843
647814477,1.076635
647872194,0.8775829
647924782,1.214406
647976868,1.299052
648031803,1.481186
648084396,1.633458
648136931,1.543223
648190025,1.662513
648243595,1.787393
648299513,1.719716
648355420,1.689101
648408883,1.826066
648465396,1.930048
648567002,1.641515
648621061,2.489338
648679478,1.274882
648732351,1.463461
648786522,1.807535
648843311,1.913129
648898724,1.70602
648960568,1.814786
649012944,1.734219
649068416,1.730996
649125169,1.772891
649179551,1.742275
649236527,1.815592
649290847,1.577061
649346692,1.447347
649401726,1.320806
649529154,1.415876
649565188,1.612511
649600361,1.72455
649635911,1.594786
649668764,1.590758
649699381,1.652039
649734820,1.646349
649769341,1.708437
649803953,1.743081
649840684,1.696352
649873249,1.583507
649906955,1.633458
649946343,1.631041
649986237,1.628624
650022323,1.70602
650061152,1.797061
650143186,1.544028
650179336,3.239574
650214827,1.033129
650252651,1.12981
650291168,1.273271
650326950,1.496493
650369898,1.660096
650405825,1.842985
650442997,1.743886
650480568,1.717299
650516731,1.739052
650551585,1.751943
650585309,1.822843
650621593,1.805118
650664224,1.787393
650701096,1.751943
650783404,1.793033
650823158,1.868011
650862501,1.733413
650902310,1.628624
650941563,1.443268
650979250,2.390996
651023469,1.290996
651063897,1.432795
651103595,1.595592
651141171,1.722133
651177169,1.769668
651217593,1.706825
651257056,1.620568
651296781,1.67621
651333455,1.70038
651371617,1.708437
651455142,1.67057
651495135,1.688295
651534403,1.697157
651573413,1.772891
651610423,1.876873
651647801,1.62943
651688655,1.577061
651728102,3.23474
651767386,1.053271
651807103,1.299052
651847912,1.422321
651886321,1.585118
651928205,1.687489
651968160,1.703603
652009723,1.650428
652050880,1.677821
652137013,1.712465
652175792,1.640709
652216119,1.626207
652259000,1.698769
652298247,1.702797
652339064,1.809146
652383279,1.663319
652427172,1.561753
652468442,2.206445
652515561,0.9734585
652555570,1.138672
652601225,1.401373
652642188,1.585924
652683259,1.768862
652725630,1.76
652767799,1.677015
652852104,1.732607
652895787,1.723745
652938651,1.736635
652983552,1.739052
653027716,1.714882
653070256,1.668153
653118894,1.930854
653163695,1.631847
653204935,1.581895
653247621,3.24038
653289990,1.186207
653332735,1.206349
653375108,1.394928
653416502,1.595592
653458578,1.811563
653503565,1.740664
653592280,1.709242
653635348,1.747915
653680586,1.769668
653724742,1.725356
653770262,1.656873
653812431,1.652845
653857926,1.739052
653899635,1.936493
653943687,1.661707
653987130,1.492465
654033558,3.000238
654077923,1.228908
654121128,1.373175
654164677,1.502133
654209730,1.598009
654259144,1.744692
654349760,1.619762
654396136,1.70038
654443181,1.749526
654488142,1.691517
654533487,1.660096
654577202,1.685072
654625158,1.773697
654669028,1.73019
654714751,1.56981
654761226,1.703603
654808735,1.080664
654854698,1.278105
654903106,1.502939
654952222,1.582701
654999531,1.841373
655045283,1.732607
655137213,1.780142
655184153,1.793033
655232492,1.652845
655280805,1.736635
655330648,1.652845
655378554,1.884124
655424477,1.631041
655471196,1.526304
655521755,3.142087
655570699,1.152369
655627632,1.377203
655675588,1.573033
655724931,1.753555
655772925,1.613317
655827481,1.666541
655876867,1.770474
655970805,1.664124
656019320,1.736635
656067495,1.689906
656117083,1.798673
656167332,1.687489
656218130,1.639098
656268150,3.24038
656318165,1.241849
656368680,1.228908
656419395,1.535166
656468818,1.650428
656517632,1.718105
656572518,1.652039
656621338,1.829288
656670992,1.734219
656720793,1.755972
656815884,1.706825
656872043,1.743081
656921287,1.653651
656972124,1.514218
657023947,3.233129
657074124,1.130616
657125445,1.316777
657175802,1.544028
657227422,1.683461
657280069,1.689906
657330460,1.577061
657384080,1.71891
657435735,1.743886
657488461,1.685878
657536602,1.697157
657583422,1.70038
657683225,1.67621
657734277,1.621373
657785424,3.071943
657839924,1.270854
657892020,1.344976
657942253,1.597203
657997207,1.741469
658054259,1.607677
658107646,1.618956
658162650,1.739858
658214254,1.692323
658266710,1.647155
658320255,1.760806
658372841,1.705214
658427808,1.669764
658480214,1.666541
658584278,1.269242
658638560,1.427155
658689578,1.494076
658743496,1.726162
658795096,1.665736
658846341,1.636681
658899001,1.783365
658952449,1.668958
659013208,1.657679
659066473,1.644738
659122413,1.715688
659177118,1.847819
659232971,1.597203
659290606,3.239574
659344894,1.182179
659397259,1.401373
659500942,1.828483
659559137,1.743886
659613238,1.693934
659668704,1.703603
659720177,1.787393
659779009,1.755166
659834672,1.690712
659890482,1.631041
659974753,1.663319
660009623,1.541611
660045357,1.300664
660080338,3.235546
660115008,1.220851
660150006,1.149146
660182905,1.324028
660218930,1.523886
660298828,1.798673
660333260,1.662513
660368296,1.613317
660404226,1.710048
660438052,1.815592
660475257,1.796255
660510685,1.692323
660545988,1.672987
660582674,1.704408
660618138,1.730996
660652461,1.653651
660685434,1.627819
660724485,1.747109
660758930,1.856732
660794166,1.618151
660832147,1.556113
660917925,1.273271
660953040,1.236159
660995271,1.423127
661028286,1.451376
661067078,1.584312
661102572,1.735024
661140635,1.651234
661178654,1.702797
661216388,1.762417
661250962,1.706825
661291966,1.723745
661331747,1.679432
661369286,1.67057
661408764,1.680238
661446456,1.631847
661489270,1.642321
661576979,1.66493
661611945,1.59962
661650358,1.70602
661688065,1.411847
661726359,1.157203
661766105,1.29019
661802089,1.461044
661839236,1.619762
661879729,1.755166
661919804,1.71891
661959969,1.710048
662001875,1.73583
662041306,1.779336
662082071,1.734219
662119995,1.730996
662161605,1.693934
662246495,1.626207
662284526,1.65929
662325507,1.703603
662367876,1.610094
662407943,1.551279
662446531,1.427155
662485186,1.645544
662525672,1.123365
662568818,1.28455
662609278,1.460238
662651312,1.664124
662692128,1.816397
662732556,1.743081
662770521,1.712465
662809734,1.768862
662853199,1.829288
662936509,1.76
662977514,1.758389
663018001,1.762417
663060876,1.751943
663101989,1.712465
663146891,1.86076
663191838,1.596397
663234402,1.494076
663275366,3.237157
663319294,1.207961
663361779,1.241849
663405669,1.377203
663450984,1.621373
663496433,1.797061
663539800,1.703603
663581185,1.734219
663667441,1.714076
663711778,1.698769
663758348,1.718105
663812264,1.683461
663853834,1.702797
663898551,1.743081
663943055,1.807535
663992167,1.593175
664036044,1.34417
664078938,1.693129
664122938,1.182985
664168193,1.297441
664211576,1.526304
664255525,1.739052
664299814,1.764028
664345116,1.606065
664437648,1.776919
664485845,1.652845
664531636,1.699574
664577294,1.743081
664625838,1.677015
664676415,1.806729
664720316,1.902655
664765815,1.539194
664812233,1.392511
664860343,1.145924
664912365,1.26602
664957080,1.452181
665003669,1.544028
665051473,1.747109
665097053,1.718105
665143540,1.627819
665234325,1.807535
665279628,1.722133
665326730,1.631847
665370795,1.708437
665419897,1.710854
665468020,1.834122
665516080,1.661707
665562638,1.467489
665607487,2.876113
665655652,1.297441
665701819,1.34981
665748284,1.482797
665795776,1.768862
665843070,1.719716
665887550,1.656068
665938477,1.782559
666036944,1.736635
666085728,1.603648
666136329,1.745498
666181658,1.738247
666227701,1.781753
666276710,1.610094
666323676,1.59962
666374442,1.073413
666420972,1.209572
666474789,1.492465
666521572,1.602843
666569529,1.744692
666617915,1.698769
666665203,1.657679
666710931,1.75436
666758987,1.741469
666854910,1.715688
666910189,1.689906
666958017,1.797061
667008166,1.568199
667057790,1.620568
667108117,3.225072
667161058,1.197487
667212121,1.416681
667261516,1.559336
667315439,1.863177
667369412,1.680238
667421377,1.70602
667471737,1.842179
667519263,1.771279
667571580,1.745498
667622355,1.638292
667719123,1.790616
667770955,1.622179
667821019,1.53436
667872192,3.225072
667924798,1.122559
667977593,1.388482
668027807,1.540806
668078366,1.762417
668130697,1.683461
668181015,1.635875
668230943,1.743886
668288443,1.712465
668339885,1.684266
668389080,1.714882
668442543,1.654456
668491274,1.818814
668586193,1.551279
668638168,3.076777
668688826,1.190236
668740445,1.327251
668790392,1.560948
668845908,1.689101
668897796,1.696352
668950149,1.73019
669004774,1.713271
669060200,1.703603
669112340,1.743886
669169994,1.711659
669221537,1.641515
669279834,1.741469
669331555,1.660096
669384909,1.353838
669483348,1.191041
669537992,1.394928
669588418,1.57545
669646959,1.705214
669703957,1.637487
669759138,1.723745
669813702,1.780948
669867972,1.668153
669927338,1.663319
669983922,1.621373
670035751,1.713271
670089274,1.885736
670143265,1.535972
670197680,2.269338
670253674,1.236965
670308827,1.236965
670438215,1.618956
670473964,1.603648
670507192,1.581895
670543959,1.618151
670576105,1.734219
670612632,1.76564
670646707,1.714076
670680808,1.692323
670714436,1.773697
670749576,1.766445
670783048,1.660096
670819598,1.654456
670854936,1.764028
670890531,1.928437
670924793,1.593175
670960563,1.582701
671041449,0.967013
671077371,1.263603
671115858,1.383648
671151833,1.54564
671188208,1.681849
671224238,1.764028
671258589,1.726162
671297179,1.626207
671331620,1.735024
671366971,1.735024
671401381,1.696352
671438834,1.717299
671475482,1.750332
671515156,1.753555
671556155,1.718105
671594259,1.739858
671674998,1.824454
671712487,1.726162
671749265,1.672987
671787461,1.548862
671825605,1.893793
671866561,1.195876
671903566,1.25474
671940134,1.419904
671978099,1.601231
672017658,1.745498
672058458,1.655262
672107710,1.667347
672145633,1.705214
672185637,1.737441
672224187,1.706825
672268461,1.745498
672353166,1.774502
672392283,1.755166
672431260,1.827677
672469186,1.827677
672506879,1.613317
672546029,1.478769
672585160,3.219432
672627670,1.236965
672668715,1.350616
672709878,1.51583
672751462,1.702797
672793096,1.830899
672833592,1.760806
672879582,1.639904
672918676,1.657679
672959362,1.685072
673047719,1.701991
673089931,1.701186
673136002,1.655262
673174021,1.719716
673217135,1.833316
673260439,1.529526
673300402,1.489242
673342302,3.231518
673382408,1.149952
673423007,1.221657
673466338,1.449764
673505476,1.595592
673548484,1.816397
673591756,1.744692
673633429,1.701991
673673159,1.755166
673756131,1.737441
673799894,1.642321
673842306,1.641515
673884186,1.667347
673929483,1.718105
673971362,1.885736
674012097,1.63507
674059064,1.519858
674106972,3.24038
674152623,1.252323
674198019,1.236965
674240528,1.382843
674281622,1.573838
674324058,1.793838
674367127,1.713271
674414223,1.707631
674501554,1.748721
674550638,1.776114
674593898,1.703603
674636498,1.672181
674681124,1.666541
674724345,1.679432
674766266,1.878485
674808618,1.637487
674852956,1.622179
674903570,3.18076
674948184,1.21924
674993331,1.32
675035551,1.449764
675083167,1.669764
675129288,1.811563
675175282,1.644738
675267373,1.798673
675319014,1.656873
675368211,1.758389
675415202,1.714882
675461627,1.699574
675505115,1.76564
675552161,1.884124
675600576,1.595592
675647960,1.589952
675695167,2.917253
675741499,1.169288
675787254,1.411847
675833728,1.535972
675880196,1.660902
675926614,1.767251
675973499,1.656873
676069344,1.808341
676115901,1.697157
676161794,1.678627
676208526,1.738247
676256063,1.622179
676301377,1.714882
676350014,1.76
676396617,1.556113
676443512,2.532039
676491906,1.028244
676538940,1.198292
676584804,1.416681
676631220,1.589146
676679201,1.626207
676727900,1.673793
676775646,1.642321
676870423,1.723745
676921096,1.650428
676967671,1.738247
677021531,1.66493
677066756,1.798673
677118726,1.606871
677165574,1.624596
677213745,3.04455
677263272,1.187013
677312483,1.306304
677358536,1.440851
677412502,1.777725
677462220,1.805118
677513121,1.65929
677564088,1.768057
677613484,1.796255
677716517,1.708437
677768188,1.787393
677814644,1.686683
677864898,1.929242
677914576,1.567393
677964854,1.442463
678016720,1.286162
678066700,1.272465
678118051,1.357061
678170021,1.66493
678221704,1.763223
678275590,1.600426
678326725,1.751138
678378358,1.723745
678428521,1.814786
678480480,1.677015
678576322,1.639098
678626724,1.785782
678677576,1.716493
678734194,1.549668
678787531,3.238769
678837458,1.144312
678886708,1.360284
678938633,1.461044
678991735,1.73019
679043663,1.677015
679099689,1.59962
679151641,1.711659
679204154,1.732607
679256268,1.606871
679306963,1.73019
679360844,1.646349
679456126,1.742275
679507741,1.618956
679558671,1.87929
679614602,0.9992401
679667376,1.310332
679721414,1.440851
679778690,1.603648
679834518,1.620568
679885814,1.70038
679939520,1.675404
679992342,1.685878
680047636,1.719716
680101461,1.677821
680159657,1.683461
680216165,1.895404
680268200,1.664124
680365401,1.187819
680421292,1.286162
680477868,1.477157
680543344,1.813175
680595687,1.67057
680649335,1.734219
680705505,1.841373
680763576,1.786587
680818391,1.699574
680903987,1.755166
680938987,1.693934
680974066,1.802701
681007644,1.751943
681042926,1.616539
681078049,1.350616
681115640,3.228295
681199811,1.257963
681236539,1.337725
681273095,1.521469
681307064,1.755972
681349149,1.759194
681383407,1.677015
681419246,1.621373
681457628,1.632653
681496249,1.684266
681536575,1.705214
681570077,1.722133
681606499,1.739052
681644937,1.764834
681680812,1.739858
681718617,1.805923
681756434,1.523886
681834534,3.223461
681872883,0.9251179
681909012,1.309526
681947877,1.448153
681985596,1.594786
682024444,1.696352
682059531,1.72455
682093942,1.624596
682131771,1.613317
682168650,1.712465
682205363,1.787393
682245922,1.802701
682282772,1.755166
682320763,1.715688
682363913,1.750332
682406799,1.773697
682491766,1.576255
682532810,1.566587
682568759,3.227489
682607295,1.054076
682646737,1.285356
682686894,1.455404
682730321,1.59962
682768356,1.791421
682812663,1.70602
682850903,1.633458
682890389,1.667347
682928414,1.767251
682968619,1.776114
683005588,1.776114
683043889,1.757583
683083734,1.756777
683175402,1.762417
683216669,1.678627
683257371,1.54564
683298228,1.431989
683338552,1.47474
683381042,1.181373
683421279,1.278105
683460798,1.418293
683507328,1.646349
683550835,1.672181
683592875,1.538389
683632699,1.56981
683671560,1.672987
683715549,1.693934
683759168,1.732607
683800571,1.732607
683887511,1.733413
683926997,1.88493
683967650,1.598814
684009335,1.536777
684051018,3.225878
684092600,1.047631
684134658,1.214406
684178994,1.437629
684218645,1.589146
684259836,1.78417
684301911,1.736635
684346549,1.703603
684387225,1.743886
684431151,1.701991
684473397,1.667347
684515371,1.62379
684602616,1.76564
684644990,1.743081
684685791,1.628624
684726524,1.419904
684772160,1.412653
684813528,1.158009
684855132,1.315972
684900798,1.57545
684946732,1.742275
684988788,1.729384
685037137,1.685072
685079388,1.762417
685127058,1.821231
685169310,1.737441
685212388,1.666541
685257145,1.713271
685349410,1.942133
685390275,1.56417
685436050,1.531138
685481731,3.236351
685528668,1.202321
685573489,1.270048
685618576,1.544834
685668497,1.777725
685717309,1.72455
685759587,1.684266
685804658,1.758389
685851431,1.745498
685896588,1.751138
685943474,1.78981
685986551,1.727773
686033067,1.669764
686122169,1.652039
686166429,1.371563
686214789,1.280522
686259275,1.236965
686307257,1.351421
686353609,1.493271
686401940,1.813175
686447019,1.656873
686492770,1.553697
686538662,1.693129
686587742,1.737441
686634438,1.695546
686679665,1.747915
686724263,1.794644
686771056,1.653651
686820919,1.611705
686917983,1.160426
686966937,1.28455
687014919,1.424738
687062150,1.708437
687107986,1.677821
687156485,1.656873
687202400,1.78417
687249210,1.743886
687296024,1.711659
687345497,1.711659
687393269,1.67057
687444031,1.841373
687495162,1.582701
687544269,1.602037
687591215,3.237963
687640954,1.257157
687735315,1.515024
687785025,1.818814
687834415,1.728579
687887955,1.651234
687937904,1.78981
687987797,1.749526
688036430,1.75436
688088626,1.70038
688143144,1.826066
688204483,1.636681
688253358,1.374786
688305185,1.442463
688356904,1.328057
688412961,1.443268
688463290,1.740664
688514131,1.799478
688612548,1.657679
688664407,1.772891
688714332,1.705214
688767017,1.691517
688819685,1.833316
688871884,1.641515
688925185,1.593175
688979374,3.217015
689031864,1.190236
689083750,1.431183
689143012,1.645544
689195251,1.779336
689245419,1.664124
689299900,1.764834
689355844,1.801089
689413255,1.697157
689508056,1.734219
689560410,1.770474
689614826,1.589146
689665906,3.225878
689718850,1.261186
689770010,1.322417
689822814,1.627013
689877235,1.793033
689929437,1.600426
689985171,1.691517
690041161,1.834928
690094157,1.717299
690147149,1.65929
690196906,1.946967
690251661,1.570616
690304215,1.626207
690402343,1.321611
690456218,1.496493
690507940,1.622985
690560932,1.777725
690619006,1.72455
690678067,1.770474
690733424,1.706825
690788857,1.645544
690842635,1.789004
690897113,1.65929
690952562,1.423127
691008608,1.167677
691066756,1.187819
691120918,1.443268
691182001,1.650428
691236072,1.640709
691336136,1.706825
691419670,1.714076
691451168,1.627819
691485161,1.639904
691521551,1.89057
691561525,1.594786
691597665,1.612511
691633506,1.98564
691670557,1.166871
691707508,1.149146
691745239,1.302275
691782141,1.468295
691818206,1.653651
691857556,1.78981
691894434,1.714882
691930831,1.632653
692011474,1.748721
692047319,1.713271
692084535,1.722939
692122193,1.713271
692159374,1.793033
692196732,1.882513
692233217,1.588341
692268028,1.544834
692304687,2.633554
692341946,0.967013
692378593,1.242655
692412520,1.290996
692449522,1.40379
692483287,1.585118
692518915,1.806729
692554920,1.75436
692637528,1.790616
692673236,1.761611
692711107,1.708437
692748221,1.663319
692786031,1.672987
692823712,1.72455
692861636,1.934076
692896660,1.705214
692932214,1.587535
692972946,1.54564
693010256,2.111376
693050120,1.149146
693091420,1.301469
693132452,1.51019
693172006,1.654456
693215296,1.864788
693296175,1.726967
693339916,1.801089
693379097,1.826871
693418881,1.792227
693459383,1.776919
693499668,1.763223
693535870,1.834122
693577798,1.703603
693619706,1.67057
693659854,2.050094
693699563,1.18379
693739524,1.280522
693785656,1.366729
693829328,1.548057
693870048,1.718105
693911929,1.741469
693997694,1.749526
694039722,1.769668
694081412,1.689906
694120545,1.687489
694162651,1.639098
694204083,1.693129
694243596,1.553697
694286897,1.508579
694328257,2.2
694370295,0.9243122
694410710,1.181373
694453947,1.391705
