845501828,1.60526
845505904,1.622179
845510285,1.632653
845514693,1.631041
845519274,1.622179
845523876,1.631847
845528346,1.638292
845533033,1.628624
845537758,1.634264
845542530,1.65929
845547393,1.672181
845552165,1.650428
845603104,1.654456
845608295,1.660096
845613527,1.643932
845618895,1.645544
845624186,1.669764
845629655,1.666541
845635137,1.642321
845640543,1.656873
845693098,1.639098
845698765,1.631847
845704492,1.664124
845710284,1.674598
845716165,1.654456
845722160,1.654456
845728142,1.63507
845775383,1.820426
845814934,1.609288
845852682,1.585924
845896584,2.757679
845937487,1.398151
845976971,1.714076
846020053,1.791421
846058052,1.856732
846100491,1.858343
846142208,1.802701
846182020,1.679432
846222586,1.679432
846266711,1.678627
846309696,1.657679
846392858,1.618956
846431195,1.618956
846473921,1.813175
846516128,1.645544
846562628,1.537583
846603350,2.480476
846643529,1.369952
846683032,1.641515
846728737,1.747915
846769976,1.767251
846811595,1.793838
846853128,1.693129
846892406,1.592369
846933865,1.577061
846981461,1.614122
847022641,1.587535
847108355,1.585924
847148291,1.577867
847191611,1.711659
847235792,1.48038
847274780,1.511801
847314767,3.095358
847358489,1.469906
847401606,1.635875
847445155,1.72455
847490706,1.800284
847532934,1.780142
847577660,1.661707
847621424,1.568199
847663833,1.621373
847708586,1.665736
847757841,1.573033
847849290,1.589146
847894595,1.771279
847941596,1.51019
847988104,1.459432
848031296,1.276493
848073662,1.646349
848114814,1.711659
848161095,1.821231
848210035,1.845402
848254370,1.790616
848302437,1.654456
848350353,1.671376
848394249,1.65929
848441016,1.642321
848484983,1.631847
848530205,1.62943
848623743,1.531138
848669787,1.535166
848716143,2.672227
848768940,1.669764
848814846,1.755166
848860251,1.796255
848904184,1.822843
848950639,1.742275
849000695,1.608482
849050043,1.662513
849094692,1.62379
849141912,1.615734
849194671,1.585118
849245529,1.611705
849293798,1.786587
849339292,1.50455
849434477,1.311138
849479758,1.674598
849526458,1.751943
849575331,1.82526
849623270,1.812369
849674499,1.644738
849723861,1.616539
849772148,1.650428
849820271,1.618956
849868434,1.613317
849918095,1.600426
849965502,1.793838
850013165,1.54564
850059945,1.535972
850108872,2.86
850156514,1.609288
850246739,1.779336
850295488,1.794644
850345051,1.699574
850394229,1.584312
850442040,1.620568
850489865,1.618151
850536987,1.597203
850584855,1.57545
850635675,1.600426
850684846,1.810758
850737035,1.52872
850783921,2.14038
850835398,1.392511
850883726,1.684266
850935493,1.775308
850988277,1.78981
851087780,1.614122
851136320,1.65929
851193149,1.644738
851242786,1.636681
851295934,1.613317
851347058,1.831705
851398010,1.566587
851450124,1.564976
851501327,1.35545
851551458,1.664124
851601151,1.764834
851651109,1.833316
851699420,1.805923
851751134,1.653651
851799844,1.596397
851851657,1.646349
851944085,1.603648
851997498,1.573838
852052157,1.756777
852103170,1.521469
852158550,1.455404
852210696,0.8163012
852259748,1.653651
852313284,1.758389
852366780,1.822843
852419237,1.772891
852477602,1.573838
852528761,1.593175
852581437,1.614928
852634581,1.592369
852685151,1.608482
852738975,1.615734
852842584,1.550474
852897441,2.100096
852950386,1.582701
853000826,1.67057
853054964,1.796255
853106806,1.816397
853164685,1.639098
853218706,1.589952
853275474,1.619762
853328496,1.63507
853384297,1.598009
853438039,1.590758
853489769,1.671376
853543436,1.666541
853599094,1.556919
853652803,1.614928
853751735,1.75436
853807736,1.81962
853861834,1.818009
853918223,1.641515
853970477,1.638292
854023323,1.646349
854080166,1.589146
854137019,1.600426
854191649,1.619762
854244990,1.749526
854301186,1.589146
854354810,1.542417
854411157,0.8534126
854468768,1.704408
854524545,1.772891
854581706,1.828483
854688187,1.549668
854744064,1.618956
854797589,1.598814
854855513,1.586729
854913759,1.592369
854972904,1.625402
855031921,1.718105
855092049,1.538389
855147807,1.698769
855203248,1.66493
855261031,1.784976
855318733,1.833316
855380834,1.699574
855446202,1.598814
855509455,1.627819
855567504,1.631041
855713121,1.660902
855749386,1.859954
855788703,1.850236
855826586,1.358672
855863113,1.564976
855902767,2.1291
855941299,1.592369
855977872,1.619762
856020994,1.745498
856056839,1.738247
856098965,1.753555
856138814,1.70602
856177789,1.558531
856215397,1.554502
856254068,1.610094
856293099,1.600426
856378271,1.592369
856414258,1.627819
856452680,1.661707
856493508,1.870428
856538783,1.59962
856578700,1.614122
856618173,2.864028
856656893,1.658485
856700488,1.780948
856739408,1.801089
856778930,1.859954
856819688,1.809952
856866659,1.738247
856903366,1.618956
856945321,1.622179
856983967,1.640709
857066225,1.574644
857103642,1.556919
857144154,1.585118
857187193,1.766445
857226095,1.498105
857263735,1.515024
857305783,3.167869
857345351,1.544028
857386509,1.657679
857431916,1.761611
857471666,1.744692
857513844,1.815592
857554875,1.658485
857594793,1.554502
857633570,1.574644
857677146,1.602037
857763372,1.554502
857806614,1.587535
857851347,1.619762
857891357,1.768862
857933572,1.552085
857973164,1.560142
858011536,3.165452
858054481,1.540806
858100605,1.67621
858144024,1.771279
858191156,1.827677
858236505,1.793838
858277307,1.678627
858320600,1.513413
858363395,1.581089
858404739,1.610899
858494557,1.568199
858539379,1.560142
858584433,1.598814
858631975,1.836539
858677208,1.523886
858719566,1.452987
858762915,1.22488
858807328,1.603648
858854272,1.716493
858900224,1.797061
858944112,1.81962
858990622,1.740664
859040041,1.602037
859089788,1.644738
859135993,1.660902
859178965,1.627819
859270220,1.633458
859314703,1.685072
859359429,1.780142
859408336,1.560142
859452094,1.940522
859498108,1.318389
859541981,1.705214
859588768,1.797061
859635891,1.868011
859681350,1.850236
859727020,1.671376
859771986,1.602037
859817966,1.636681
859862135,1.639098
859906916,1.62943
859953064,1.626207
860041863,1.607677
860086889,1.826066
860133713,1.633458
860179372,1.564976
860224532,3.148533
860270024,1.568199
860314717,1.701991
860360171,1.780948
860409514,1.880096
860456712,1.824454
860506400,1.601231
860550549,1.598814
860601072,1.613317
860647277,1.635875
860696995,1.59398
860747377,1.553697
860844755,1.727773
860890165,1.625402
860942008,1.512607
860988352,3.154173
861038345,1.631041
861085549,1.704408
861134808,1.781753
861182259,1.818009
861228654,1.741469
861276781,1.588341
861323657,1.615734
861372308,1.637487
861418569,1.607677
861466673,1.592369
861513067,1.622179
861562671,1.607677
861651268,1.577061
861703341,1.59398
861755688,1.267631
861804479,1.713271
861856612,1.813175
861907680,1.900238
861956199,1.852653
862007766,1.672987
862059403,1.657679
862109786,1.69474
862165595,1.669764
862215160,1.642321
862265988,1.638292
862315200,1.656873
862364931,1.882513
862416170,1.563365
862516201,1.523081
862566196,1.693129
862617107,1.81398
862663870,1.87929
862714581,1.805923
862763012,1.603648
862814384,1.60526
862864547,1.630236
862916693,1.602037
862966114,1.580284
863020292,1.57545
863071999,1.62379
863121322,1.834122
863172196,1.552085
863223911,2.145214
863275083,1.537583
863369886,1.805923
863422464,1.859954
863475600,1.739858
863528620,1.571421
863577866,1.565782
863629426,1.616539
863685534,1.57545
863739269,1.544028
863792251,1.580284
863845950,1.614928
863898077,1.614928
863955389,1.525498
864005125,2.342655
864059322,1.624596
864114446,1.727773
864168091,1.81962
864270728,1.645544
864328405,1.627819
864382467,1.631041
864434899,1.678627
864491600,1.640709
864547529,1.652039
864606384,1.693129
864662277,1.677821
864719223,1.608482
864773368,1.479574
864826444,1.697963
864881815,1.786587
864937594,1.929242
864997617,1.821231
865060128,1.624596
865118966,1.65929
865220810,1.610899
865280829,1.585924
865342144,1.593175
865396246,1.743886
865453431,1.557725
865508267,1.687489
865565122,1.516635
865624296,1.695546
865681625,1.81962
865735938,1.852653
865797223,1.627819
865851150,1.603648
865910054,1.62943
865967742,1.612511
866024704,1.584312
866081855,1.587535
866190411,1.751943
866248746,1.544028
866302690,1.857537
866356593,1.489242
866416144,1.70602
866475842,1.820426
866539691,1.785782
866597872,1.582701
866652696,1.59962
866745701,1.614122
866782807,1.582701
866819116,1.581089
866856341,1.587535
866890658,1.594786
866925473,1.612511
866967167,1.834928
867045115,1.538389
867083834,3.146116
867119913,1.281327
867157421,1.67621
867196951,1.726162
867233594,1.841373
867270967,1.876068
867310255,1.827677
867348865,1.683461
867389180,1.612511
867431153,1.627013
867470241,1.664124
867509701,1.645544
867548721,1.62379
867586392,1.618151
867622036,1.618956
867710885,1.801089
867745949,1.698769
867786067,1.563365
867829355,1.738247
867871289,0.9839323
867910966,1.689101
867950363,1.751138
867986097,1.809952
868029013,1.889764
868072243,1.838956
868112408,1.660096
868154808,1.573838
868197745,1.613317
868238346,1.625402
868280170,1.621373
868320263,1.601231
868403751,1.610094
868446791,1.618956
868486916,1.796255
868528776,1.561753
868573800,1.554502
868613928,3.163841
868653877,1.594786
868692284,1.711659
868732518,1.76
868777921,1.845402
868821185,1.852653
868860116,1.706825
868901777,1.556919
868948426,1.594786
868991405,1.612511
869033384,1.609288
869122332,1.566587
869163727,1.577867
869206271,1.590758
869247107,1.680238
869291931,1.702797
869333432,1.54564
869377531,1.709242
869420540,1.116919
869463870,1.661707
869508522,1.734219
869552080,1.809146
869593730,1.830094
869636912,1.743081
869680784,1.571421
869721412,1.600426
869763988,1.595592
869849663,1.591563
869892212,1.566587
869933972,1.589146
869977150,1.588341
870019009,1.743081
870062062,1.573033
870102375,1.550474
870144030,2.385356
870186338,1.29583
870232419,1.714882
870276220,1.803506
870321281,1.872039
870363571,1.847013
870410192,1.70602
870454018,1.628624
870501117,1.622985
870597874,1.639904
870645892,1.616539
870691440,1.598009
870739661,1.606871
870781872,1.735024
870830086,1.660096
870874830,1.556919
870921215,2.90114
870967624,1.577061
871012546,1.702797
871055649,1.780142
871102377,1.697963
871147001,1.718105
871190687,1.570616
871236252,1.506967
871278949,1.542417
871368447,1.577061
871413912,1.574644
871462259,1.573838
871512099,1.612511
871558319,1.78981
871605721,1.594786
871654653,1.589146
871699397,3.163035
871747393,1.668153
871797982,1.75436
871847465,1.863177
871897846,1.886541
871945141,1.755166
871994007,1.598814
872042454,1.611705
872088033,1.640709
872187243,1.606065
872237187,1.598814
872286425,1.625402
872336065,1.767251
872381886,1.622985
872431647,1.550474
872475873,3.163035
872525022,1.60526
872571264,1.710048
872622428,1.814786
872670467,1.852653
872721240,1.719716
872771718,1.619762
872818527,1.570616
872865516,1.620568
872914996,1.624596
873006713,1.606871
873058497,1.614122
873110142,1.735024
873156986,1.563365
873204984,1.568199
873252624,1.87929
873302533,1.666541
873353671,1.777725
873405863,1.86076
873457183,1.88493
873506789,1.684266
873554526,1.619762
873606886,1.647961
873655100,1.647961
873706507,1.616539
873758176,1.611705
873857502,1.81398
873909544,1.542417
873964681,1.499716
874016292,0.8654978
874063669,1.671376
874117846,1.782559
874172432,1.864788
874227720,1.801895
874280654,1.581089
874335134,1.586729
874385262,1.608482
874436286,1.634264
874490795,1.59398
874544560,1.572227
874600515,1.606065
874660759,1.71891
874758672,2.688391
874812868,1.613317
874868888,1.72455
874927665,1.862371
874979520,1.880902
875034376,1.643932
875089537,1.574644
875141477,1.618151
875200618,1.613317
875255049,1.589146
875307433,1.597203
875362469,1.587535
875415198,1.741469
875470735,1.560142
875524906,1.660902
875578011,1.299052
875680168,1.776114
875735209,1.845402
875791533,1.708437
875845269,1.556113
875897593,1.631847
875953235,1.641515
876011939,1.615734
876071903,1.622179
876127335,1.614122
876181118,1.766445
876242257,1.561753
876297860,1.51019
876355306,1.214406
876410870,1.710048
876465451,1.792227
876519612,1.888959
876624006,1.57545
876680741,1.611705
876739250,1.614122
876793751,1.616539
876849276,1.59398
876906109,1.60526
876961662,1.610899
877015836,1.764028
877074466,1.600426
877131411,1.773697
877188710,1.598814
877249348,1.733413
877307956,1.845402
877368450,1.874456
877425916,1.60526
877480999,1.585924
877584213,1.582701
877677680,1.594786
877715732,1.606065
877755801,1.618151
877794109,1.622985
877831443,2.133934
877869524,1.760806
877905529,1.594786
877946941,2.348295
877988018,1.295024
878026726,1.656873
878067749,1.735024
878107157,1.803506
878143833,1.847013
878183410,1.792227
878221517,1.650428
878303525,1.597203
878343810,1.654456
878380833,1.533555
878420102,1.574644
878463765,1.71891
878502532,1.591563
878541066,1.582701
878578037,1.650428
878617496,1.732607
878660652,1.779336
878700860,1.40379
878737287,2.18872
878778221,1.482797
878823089,1.643127
878865158,1.690712
878906824,1.736635
878990077,1.589146
879028830,1.556919
879070190,1.595592
879109958,1.750332
879153143,1.562559
879191810,1.598814
879233201,1.548862
879273851,1.544028
879314626,1.577867
879355298,1.829288
879396476,1.544028
879437410,1.543223
879477949,2.60455
879517546,1.638292
879555674,1.678627
879593714,1.764028
879676593,1.882513
879716639,1.771279
879756669,1.642321
879798783,1.684266
879839623,1.697963
879879180,1.716493
879919623,1.627819
879961784,1.652845
880001167,1.674598
880045389,1.747109
880090488,1.864788
880134874,1.672181
880174869,1.606065
880219281,3.149338
880260903,1.664124
880304488,1.680238
880399065,1.995308
880443658,2.017061
880486968,1.63507
880534614,1.618151
880577111,1.640709
880621467,1.631041
880662368,1.617345
880706837,1.614122
880751408,1.590758
880794782,1.652039
880835584,1.84379
880877623,1.498911
880920921,1.584312
880962181,2.522371
881006981,1.581895
881048519,1.692323
881137740,1.845402
881179119,1.771279
881225467,1.627013
881273306,1.535972
881317588,1.602843
881362431,1.519858
881407373,1.505356
881449444,1.516635
881496032,1.548862
881542832,1.671376
881588331,1.600426
881637184,1.523886
881681842,2.599716
881728039,1.34981
881772133,1.728579
881815238,1.779336
881907719,1.871234
881954139,1.712465
881999663,1.62379
882045274,1.66493
882090388,1.697157
882137738,1.709242
882182321,1.584312
882230767,1.732607
882276254,1.822843
882324401,1.618151
882370047,1.607677
882418098,3.159007
882464349,1.666541
882509253,1.726162
882554281,1.793838
882601600,2.029146
882690998,1.619762
882736619,1.561753
882784935,1.626207
882831398,1.59962
882877282,1.607677
882922534,1.574644
882970165,1.583507
883019031,1.712465
883068748,1.529526
883116361,1.461044
883162726,1.323223
883208552,1.619762
883259047,1.721328
883305099,1.783365
883353364,1.829288
883402782,1.696352
883499192,1.596397
883550494,1.618956
883603362,1.602037
883650861,1.618151
883696855,1.606871
883748992,1.82526
883799783,1.556919
883853845,2.062179
883904118,1.303081
883955392,1.691517
884004211,1.802701
884052050,1.880096
884103033,1.766445
884155389,1.585118
884208782,1.618956
884268355,1.664124
884367905,1.653651
884419848,1.637487
884471372,1.803506
884528784,1.571421
884578106,1.726162
884630121,1.45621
884681355,1.736635
884732134,1.818009
884787950,1.862371
884840522,1.755972
884892119,1.583507
884947982,1.609288
884998022,1.626207
885051732,1.579478
885104325,1.566587
885155894,1.586729
885256822,1.544834
885307297,1.505356
885362243,1.095972
885413956,1.622985
885463543,1.70602
885518622,1.811563
885574010,1.815592
885632456,1.560142
885686365,1.551279
885738174,1.570616
885795105,1.561753
885848400,1.531943
885901144,1.570616
885954690,1.573033
886006264,1.79545
886058845,1.519858
886156851,1.440851
886208832,1.673793
886264103,1.776919
886315943,1.861565
886368321,1.716493
886424311,1.560948
886476863,1.614928
886527669,1.610094
886586234,1.583507
886639538,1.59398
886693694,1.589146
886750887,1.764028
886805754,1.537583
886863236,1.874456
886918512,1.473129
886974175,1.69474
887074328,1.835733
887128486,1.699574
887184966,1.581089
887240977,1.613317
887299114,1.652845
887354647,1.625402
887409447,1.621373
887464093,1.610899
887522899,1.867205
887585572,1.573033
887641102,3.155784
887700700,1.682655
887758784,1.782559
887814297,1.898627
887872514,1.821231
887928848,1.618151
888029134,1.624596
888089126,1.619762
888147623,1.618151
888206710,1.603648
888268876,1.814786
888327551,1.54564
888386125,3.105832
888443149,1.635875
888499598,1.740664
888558824,1.834122
888646987,1.677015
888685769,1.577867
888727099,1.57545
888769101,1.608482
888807001,1.586729
888842314,1.583507
888926623,1.563365
888965427,1.588341
889003089,1.755972
889042647,1.636681
889079279,1.529526
889116665,1.465072
889154952,1.691517
889194903,1.627819
889233675,1.686683
889272473,1.764028
889312652,1.838956
889350750,1.84379
889389893,1.691517
889427067,1.561753
889464890,1.550474
889503921,1.610094
889582113,1.582701
889620711,1.587535
889661701,1.580284
889701269,1.588341
889738593,1.749526
889777794,1.685878
889816436,1.537583
889854907,1.488437
889897358,1.19507
889937699,1.626207
889979170,1.716493
890016667,1.769668
890058284,1.82526
890097319,1.818814
890138113,1.669764
890182413,1.57545
890273488,1.611705
890312796,1.624596
890360213,1.602843
890397477,1.610094
890440400,1.598814
890480404,1.761611
890520936,1.600426
890562239,1.54564
890602403,2.192749
890640440,1.157203
890681564,1.655262
890720913,1.738247
890759852,1.809146
890801816,1.865594
890840809,1.813175
890884803,1.62379
890976597,1.613317
891021111,1.622179
891062931,1.596397
891106896,1.593175
891152060,1.596397
891190865,1.616539
891235001,1.834122
891277134,1.540806
891320242,1.519858
891365799,1.811563
891408066,1.635875
891449353,1.703603
891491136,1.770474
891531150,1.829288
891574641,1.826066
891620948,1.620568
891712806,1.601231
891755901,1.602037
891796823,1.585118
891841414,1.570616
891883682,1.56981
891930831,1.581089
891974074,1.72455
892018372,1.558531
892061645,1.550474
892108489,3.159812
892154200,1.653651
892195483,1.697157
892236851,1.779336
892280529,1.833316
892326479,1.823648
892370800,1.632653
892461963,1.60526
892506746,1.597203
892552149,1.594786
892594812,1.613317
892639525,1.587535
892686781,1.59962
892733801,1.820426
892778647,1.551279
892824985,1.490854
892868069,1.234548
892916894,1.639098
892960331,1.776114
893006695,1.821231
893054292,1.829288
893100118,1.756777
893148820,1.601231
893244334,1.650428
893291498,1.625402
893336350,1.618151
893385496,1.596397
893434647,1.770474
893484405,1.614122
893533139,1.56417
893582750,3.158201
893629059,1.616539
893675351,1.714882
893725994,1.818009
893774607,1.864788
893825683,1.738247
893882065,1.57545
893933887,1.608482
893984317,1.626207
894080972,1.606065
894134796,1.584312
894181613,1.787393
894231559,1.538389
894280386,1.543223
894328627,2.85436
894378333,1.650428
894428674,1.719716
894477703,1.81962
894528786,1.859954
894576508,1.692323
894627857,1.56981
894678091,1.60526
894730105,1.616539
894778792,1.608482
894828610,1.573838
894927721,1.722939
894976690,1.661707
895023551,1.563365
895075882,3.159007
895127278,1.647155
895181028,1.738247
895232233,1.797061
895281368,1.836539
895336538,1.665736
895386187,1.592369
895438721,1.622179
895489537,1.602843
895539145,1.59962
895587556,1.598814
895640995,1.618956
895690992,1.756777
895789026,1.541611
895840441,1.112085
895889394,1.669764
895941374,1.776114
895991922,1.868011
896042940,1.837345
896096825,1.624596
896147988,1.618956
896199572,1.651234
896256119,1.640709
896308632,1.584312
896362118,1.637487
896415394,1.680238
896467316,1.693934
896517154,1.582701
896569093,3.162229
896670888,1.739052
896727237,1.837345
896781730,1.868011
896835023,1.652039
896887405,1.586729
896938093,1.624596
896993322,1.598814
897052602,1.594786
897105944,1.59962
897163533,1.635875
897219399,1.718105
897274172,1.552085
897328577,3.142087
897381132,1.665736
897436694,1.751138
897493287,1.859954
897595089,1.630236
897651847,1.591563
897711615,1.611705
897766484,1.616539
897821293,1.606871
897876005,1.611705
897931597,1.627013
897993132,1.585924
898047561,1.549668
898105489,0.9484824
898165163,1.672987
898225244,1.769668
898282923,1.835733
898337412,1.702797
898391289,1.551279
898447384,1.566587
898549024,1.568199
898609036,1.553697
898663796,1.577061
898719631,1.821231
898777936,1.538389
898834845,3.105832
898891823,1.59962
898948846,1.72455
899005797,1.826066
899062279,1.826871
899119713,1.633458
899173337,1.63507
899229406,1.641515
899285225,1.627013
899341187,1.622179
899398792,1.634264
899502278,1.544834
899560021,1.566587
899644983,1.67621
899680230,1.743886
899718026,1.808341
899755603,1.853458
899793458,1.848624
899830990,1.73019
899865971,1.592369
899905034,1.577061
899941559,1.581895
899979812,1.602843
900022533,1.573033
900064196,1.568199
900100768,1.571421
900142502,1.537583
900226127,1.642321
900265492,1.518247
900302069,1.43924
900338465,2.270144
900378623,1.626207
900415336,1.693129
900451779,1.739052
900489730,1.822843
900527759,1.881707
900563055,1.847819
900600932,1.654456
900638287,1.601231
900676873,1.621373
900715109,1.612511
900756393,1.617345
900795500,1.611705
900885650,1.614928
900925777,1.771279
900961940,1.519052
901002216,1.544028
901042363,2.975262
901082693,1.357061
901126350,1.690712
901164847,1.773697
901204267,1.85507
901242330,1.898627
901279603,1.838151
901321438,1.668153
901363985,1.608482
901403294,1.643127
901442859,1.627819
901479868,1.618151
901567138,1.590758
901606551,1.749526
901648655,1.594786
901688938,1.537583
901731977,2.41436
901770576,1.220046
901813523,1.681044
901854393,1.762417
901896612,1.814786
901936570,1.85507
901976326,1.769668
902020095,1.596397
902060129,1.556113
902104447,1.592369
902148685,1.57545
902192457,1.551279
902282428,1.70602
902321533,1.521469
902361258,1.513413
902405827,3.165452
902450802,1.457821
902493976,1.647155
902538078,1.739052
902577653,1.834928
902623074,1.793838
902663054,1.636681
902705539,1.556113
902751921,1.560948
902795444,1.595592
902841514,1.608482
902887126,1.608482
902931109,1.768862
903021469,1.532749
903066900,1.56417
903112659,1.634264
903159583,1.743886
903204532,1.834122
903250669,1.85507
903292537,1.739052
903335236,1.614122
903382025,1.639904
903429434,1.645544
903478694,1.650428
903533109,1.59962
903583070,1.710048
903627891,1.684266
903676689,1.537583
903729696,3.167063
903819673,1.682655
903866845,1.771279
903914418,1.838151
903960056,1.818814
904009419,1.577867
904055651,1.586729
904100299,1.627013
904148645,1.615734
904195251,1.602843
904243936,1.606065
904291276,1.734219
904339272,1.541611
904386612,1.543223
904432160,2.877725
904479890,1.654456
904526461,1.702797
904617844,1.826871
904666259,1.726162
904716494,1.569004
904767863,1.583507
904815257,1.604454
904860233,1.580284
904913014,1.550474
904961211,1.626207
905009854,1.641515
905057148,1.511801
905104511,2.512703
905150599,1.246683
905202954,1.693129
905251275,1.758389
905300482,1.847013
905347160,1.794644
905441446,1.627819
905491554,1.614928
905539701,1.616539
905586360,1.593175
905638794,1.619762
905685985,1.856732
905736052,1.519052
905791177,2.043648
905841310,1.499716
905891302,1.664124
905941748,1.771279
905990920,1.822843
906038882,1.769668
906086379,1.577061
906138992,1.589146
906191241,1.581089
906291945,1.552085
906340829,1.563365
906392145,1.721328
906441763,1.51019
906495321,1.461849
906551911,1.324834
906604329,1.685072
906658996,1.768862
906712090,1.826871
906762514,1.740664
906816790,1.573838
906866665,1.59398
906917982,1.583507
906971743,1.552891
907026461,1.560142
907079054,1.560142
907182917,1.525498
907235080,1.47474
907287162,0.9331747
907337371,1.644738
907391056,1.72455
907446734,1.816397
907499543,1.792227
907553638,1.590758
907611094,1.610094
907668951,1.59962
907722968,1.59398
907774977,1.582701
907827429,1.598814
907882361,1.753555
907935855,1.536777
907992363,2.876113
908092905,1.714076
908147034,1.812369
908200690,1.844596
908257826,1.679432
908311589,1.650428
908366200,1.664124
908421337,1.633458
908475458,1.606065
908530448,1.621373
908582534,1.820426
908636239,1.543223
908689715,1.487631
908743214,0.9315633
908795896,1.680238
908851980,1.766445
908905150,1.841373
909006159,1.618151
909061418,1.633458
909114958,1.618151
909171829,1.585924
909227786,1.603648
909285154,1.650428
909338409,1.677015
909398223,1.544834
909452844,1.280522
909509461,1.678627
909569444,1.777725
909629618,1.842179
909686313,1.72455
909747466,1.576255
909803228,1.611705
909862874,1.597203
909967519,1.586729
910023764,1.721328
910081446,1.532749
910137383,1.82526
910191310,1.473129
910247325,1.688295
910304483,1.794644
910360835,1.798673
910416167,1.637487
910469832,1.592369
910558103,1.581895
910598275,1.579478
910634796,1.56981
910674599,1.556113
910714376,1.727773
910748882,1.775308
910835822,1.652039
910874591,1.244266
910911596,1.651234
910952648,1.675404
910989740,1.739052
911027160,1.794644
911062879,1.793033
911098322,1.751138
911134945,1.616539
911174753,1.611705
911213588,1.642321
911251854,1.637487
911287523,1.631847
911325931,1.611705
911361880,1.598814
911401844,1.817203
911486301,1.556919
911526872,1.806729
911564620,0.8928908
911605288,1.672987
911645713,1.73019
911683604,1.792227
911720586,1.847013
911759489,1.82526
911798921,1.714882
911838074,1.601231
911878018,1.613317
911919469,1.618956
911957039,1.602037
911995725,1.587535
912033243,1.597203
912074261,1.606871
912166333,1.552085
912208093,1.482797
912247988,2.593271
912287574,1.636681
912327261,1.693129
912370938,1.75436
912409179,1.833316
912449288,1.813175
912491040,1.70602
912530503,1.585118
912571726,1.590758
912617647,1.595592
912658094,1.597203
912699370,1.590758
912743277,1.596397
912785830,1.624596
912878090,1.522275
912922869,1.635875
912967629,1.065356
913008749,1.650428
913049795,1.712465
913091663,1.803506
913136401,1.813175
913182198,1.75436
913231210,1.583507
913280101,1.601231
913322285,1.595592
913367931,1.596397
913419487,1.580284
913461341,1.594786
913508416,1.731801
913552128,1.560948
913642090,3.154173
913688998,1.635875
913734145,1.689101
913777898,1.751943
913822481,1.805118
913864903,1.790616
913911407,1.637487
913956172,1.585924
914001722,1.613317
914045163,1.635875
914091245,1.615734
914137501,1.582701
914179517,1.595592
914221205,1.813175
914269649,1.538389
914316918,1.519052
914411313,1.67057
914455905,1.740664
914499709,1.822037
914549661,1.864788
914593392,1.726162
914639680,1.622985
914684266,1.658485
914727949,1.653651
914772860,1.631847
914822228,1.594786
914867360,1.625402
914913638,1.758389
914959870,1.523081
915005455,1.529526
915051220,1.919574
915095784,1.642321
915184320,1.799478
915233786,1.834122
915279920,1.735024
915326943,1.604454
915377583,1.606871
915423378,1.613317
915473260,1.592369
915521156,1.562559
915566163,1.582701
915611656,1.634264
915656636,1.776919
915706672,1.548057
915756380,2.552987
915806985,1.603648
915855362,1.701991
915902399,1.796255
915995650,1.818814
916046790,1.618956
916100899,1.615734
916149243,1.65929
916201566,1.596397
916252272,1.590758
916300106,1.598814
916350760,1.622985
916400066,1.764834
916448581,1.556113
916498555,2.445782
916550792,1.573033
916602356,1.70038
916656911,1.782559
916706645,1.820426
916756155,1.714076
916849569,1.637487
916900239,1.621373
916953618,1.598814
917001946,1.579478
917053273,1.608482
917110006,1.733413
917165013,1.563365
917215932,1.561753
917265221,1.193458
917313071,1.701991
917365034,1.792227
917415783,1.864788
917469878,1.826066
917520920,1.618956
917573318,1.634264
917626459,1.636681
917725850,1.60526
917778066,1.598814
917827583,1.621373
917882051,1.705214
917932251,1.548862
917982869,3.167063
918033466,1.622985
918083114,1.698769
918133833,1.809952
918184820,1.824454
918235637,1.702797
918287617,1.595592
918339323,1.609288
918391069,1.625402
918443992,1.581089
918496004,1.589146
918597499,1.750332
918651962,1.544028
918705577,1.472323
918759575,1.212795
918814647,1.690712
918867064,1.775308
918922734,1.831705
918980344,1.710048
919035596,1.584312
919088199,1.626207
919147238,1.680238
919200615,1.571421
919257712,1.592369
919309484,1.613317
919362768,1.695546
919417685,1.532749
919517767,1.037157
919570900,1.674598
919624762,1.743886
919678765,1.816397
919731156,1.781753
919783774,1.582701
919835254,1.614928
919889218,1.62943
919946364,1.588341
920000122,1.585924
920058207,1.602843
920115443,1.751943
920168260,1.566587
920224441,1.772891
920281999,1.478769
920337027,1.71891
920443401,1.863983
920498705,1.729384
920556681,1.630236
920611444,1.680238
920665076,1.638292
920720908,1.606871
920779087,1.616539
920837521,1.793033
920893840,1.553697
920947375,1.470712
921004953,1.203932
921059974,1.678627
921120353,1.780142
921176152,1.813175
921234839,1.678627
921291001,1.581089
921398801,1.582701
921455475,1.581895
921542144,1.587535
921576500,1.70602
921613884,1.560142
921650432,1.551279
921687880,1.979194
921725424,1.167677
921761291,1.609288
921797472,1.706825
921841074,1.773697
921876419,1.827677
921917122,1.828483
921956299,1.719716
921994800,1.63507
922033510,1.622179
922114359,1.634264
922155450,1.622985
922191170,1.616539
922231132,1.622179
922271267,1.750332
922310787,1.834928
922351810,1.56981
922392654,1.473935
922431459,1.934882
922468562,1.639098
922511184,1.721328
922551634,1.78981
922594179,1.838151
922634570,1.824454
922678874,1.677821
922717109,1.573033
922801105,1.602037
922842235,1.611705
922884054,1.54564
922928162,1.57545
922974373,1.585924
923019474,1.749526
923057902,1.502939
923100163,1.519858
923146840,3.01474
923187275,1.54564
923230357,1.672987
923272608,1.743081
923312753,1.807535
923358106,1.803506
923401493,1.689906
923440947,1.563365
923533104,1.658485
923572624,1.598814
923614729,1.620568
923656736,1.635875
923698025,1.635875
923739952,1.813175
923783195,1.535166
923827475,1.571421
923866864,3.135642
923907719,1.607677
923952289,1.70038
923996994,1.790616
924045166,1.818814
924087164,1.802701
924128647,1.643932
924175744,1.590758
924264304,1.603648
924307656,1.579478
924349640,1.576255
924391640,1.581895
924432132,1.725356
924479007,1.622985
924521444,1.515024
924567564,2.532039
924611304,1.402985
924655661,1.671376
924699807,1.738247
924741895,1.796255
924783149,1.786587
924829354,1.664124
924873614,1.563365
924918262,1.579478
925013017,1.618956
925056360,1.586729
925103195,1.578672
925148029,1.651234
925191861,1.73583
925234497,1.538389
925278466,1.747915
925324398,1.208766
925371365,1.668153
925420029,1.71891
925465486,1.815592
925509734,1.790616
925554119,1.705214
925600895,1.610094
925652138,1.644738
925698779,1.650428
925793565,1.610899
925841335,1.603648
925886213,1.760806
925933994,1.548057
925980157,1.500522
926026096,1.292607
926074552,1.693934
926121070,1.796255
926169590,1.90185
926222586,1.925214
926270604,1.772891
926317372,1.797061
926365390,1.663319
926413024,1.743886
926466055,1.779336
926511894,1.633458
926607546,1.868817
926661617,1.506967
926713119,1.386065
926762995,1.085498
926809868,1.65929
926856848,1.831705
926904036,1.812369
926952121,1.840568
927002553,1.632653
927049810,1.555308
927100793,1.553697
927148792,1.556919
927195488,1.505356
927244576,1.473129
927292978,1.498105
927342332,1.674598
927435465,1.477963
927485134,1.163648
927532985,1.610899
927581269,1.696352
927629515,1.776114
927677429,1.775308
927727315,1.622179
927777629,1.592369
927827728,1.616539
927876647,1.647155
927925801,1.609288
927974877,1.639098
928025605,1.762417
928076448,1.571421
928127148,1.494076
928176593,0.8977249
928276908,1.779336
928326340,1.847013
928378053,1.838956
928431894,1.613317
928484291,1.563365
928533757,1.625402
928588831,1.610899
928638492,1.581895
928691854,1.598009
928739593,1.774502
928788892,1.597203
928840828,1.583507
928891558,2.601327
928942666,1.630236
928992665,1.727773
929045310,1.801895
929140293,1.677015
929191206,1.580284
929242602,1.606065
929292364,1.608482
929348016,1.584312
929398596,1.603648
929454173,1.598814
929508465,1.755972
929558738,1.560142
929614787,1.594786
929668313,1.336919
929721835,1.725356
929777655,1.85507
929830343,1.887347
929884564,1.76
929936653,1.606871
930035633,1.631847
930087626,1.60526
930141020,1.589952
930197191,1.59962
930250937,1.589952
930302211,1.826871
930356445,1.538389
930406908,1.902655
930464587,1.569004
930517852,1.727773
930574192,1.818009
930627806,1.832511
930683143,1.677015
930734622,1.589146
930786984,1.608482
930841370,1.602843
930945685,1.588341
930999263,1.609288
931056373,1.792227
931113785,1.551279
931167701,1.489242
931221012,1.057299
931273200,1.693934
931328377,1.775308
931388108,1.89057
931445996,1.732607
931501236,1.597203
931555944,1.624596
931610732,1.603648
931669096,1.581089
931722883,1.600426
931781024,1.613317
931885900,1.56417
931943623,1.506162
932003898,1.236965
932064413,1.680238
932119763,1.807535
932172258,1.868817
932233023,1.699574
932290394,1.581895
932348991,1.616539
932406461,1.597203
932495715,1.600426
932531187,1.59962
932570298,1.595592
932608200,1.782559
932649762,1.627013
932695035,1.581089
932786153,1.587535
932823000,1.689101
932859237,1.75436
932902668,1.861565
932938782,1.870428
932979077,1.836539
933018419,1.654456
933057579,1.600426
933100249,1.634264
933139811,1.622985
933178115,1.614122
933219766,1.594786
933256757,1.602843
933298899,1.589952
933336876,1.618956
933373841,1.761611
933458039,1.563365
933497053,2.399052
933536352,1.281327
933572295,1.661707
933608636,1.714882
933650128,1.79545
933692096,1.842179
933737251,1.807535
933778009,1.651234
933816349,1.59398
933860772,1.620568
933900681,1.618151
933940230,1.600426
933981445,1.602037
934020537,1.596397
934058084,1.590758
934148251,1.655262
934186647,1.536777
934228359,1.665736
934269356,1.181373
934309290,1.667347
934350609,1.79545
934389673,1.848624
934428044,1.885736
934470906,1.864788
934510839,1.735024
934552396,1.646349
934598460,1.66493
934639823,1.666541
934682762,1.633458
934724531,1.608482
934765192,1.610094
934850839,1.748721
934891877,1.564976
934936631,1.562559
934980950,3.163841
935024670,1.595592
935067518,1.669764
935109382,1.764028
935149185,1.786587
935193823,1.809952
935242311,1.657679
935286652,1.567393
935334129,1.609288
935378985,1.595592
935421301,1.589146
935466478,1.557725
935510041,1.560948
935599956,1.758389
935647192,1.519858
935692618,1.884124
935738774,1.328862
935789122,1.660096
935834609,1.743886
935878611,1.830899
935922674,1.818009
935967575,1.664124
936016243,1.576255
936059213,1.618151
936106513,1.594786
936156605,1.585924
936206224,1.581089
936254518,1.597203
936298336,1.73583
936387440,1.560142
936433932,2.377299
936479245,1.664124
936528601,1.710048
936572927,1.794644
936620913,1.833316
936666946,1.76
936714206,1.596397
936760682,1.625402
936806002,1.627819
936851472,1.621373
936897228,1.615734
936943080,1.593175
936987159,1.747915
937031676,1.701991
937076683,1.568199
937167664,1.395734
937214758,1.693934
937263432,1.780142
937308886,1.808341
937352765,1.809952
937400171,1.618956
937445578,1.539194
937493933,1.540806
937541574,1.560142
937591073,1.555308
937636362,1.577867
937687251,1.589146
937734148,1.830094
937784062,1.544028
937838029,2.058956
937890109,1.533555
937983197,1.809146
938035515,1.882513
938080424,1.85507
938131103,1.644738
938177254,1.616539
938225754,1.671376
938275049,1.672181
938323489,1.640709
938371248,1.634264
938421097,1.764834
938469461,1.643932
938515376,1.57545
938562732,3.159007
938608640,1.583507
938656893,1.713271
938708415,1.773697
938803334,1.78981
938854407,1.584312
938905864,1.597203
938953077,1.620568
939004813,1.602037
939056721,1.594786
939107554,1.598814
939161470,1.816397
939211349,1.530332
939262627,2.303983
939313617,1.423127
939361516,1.685878
939413218,1.756777
939464188,1.814786
939515716,1.749526
939566526,1.611705
939660428,1.671376
939712823,1.618956
939762467,1.626207
939816350,1.637487
939865996,1.838956
939919551,1.56417
939967502,2.229004
940020999,1.588341
940070602,1.685878
940120165,1.790616
940169541,1.826871
940222866,1.745498
940276667,1.584312
940331088,1.602843
940384198,1.621373
940436509,1.59962
940536054,1.62943
940585686,1.705214
940636524,1.535166
940691685,3.165452
940746941,1.636681
940799648,1.747915
940853629,1.822037
940904220,1.831705
940961914,1.631041
941013023,1.582701
941066196,1.614122
941121833,1.615734
941175619,1.586729
941232434,1.573033
941289087,1.781753
941341035,1.543223
941440618,1.343365
941496676,1.668153
941551623,1.749526
941608797,1.805118
941665934,1.656873
941719494,1.585924
941772947,1.602843
941829636,1.577867
941886082,1.573033
941945575,1.610899
942009290,1.708437
942071887,1.541611
942127454,1.460238
942186199,1.666541
942249399,1.782559
942305185,1.848624
942410257,1.601231
942467549,1.627013
942523018,1.639904
942583590,1.631041
942639729,1.607677
942694619,1.76
942752931,1.531138
942807719,1.48602
942866686,1.271659
942924335,1.681044
942982425,1.798673
943040133,1.838956
943098605,1.646349
943155936,1.579478
943210242,1.600426
943264338,1.59398
943367916,1.566587
943427443,1.662513
943522848,1.535972
943556750,1.606871
943596473,0.8300481
943631152,1.619762
943667896,1.705214
943704179,1.779336
943739615,1.829288
943777511,1.829288
943817300,1.812369
943853647,1.581895
943891620,1.577061
943928379,1.651234
943964597,1.647155
944002198,1.609288
944084208,1.597203
944119920,1.580284
944160001,1.574644
944197903,1.78981
944237302,1.660902
944282480,1.494076
944321082,1.788199
944361338,1.128199
944400412,1.572227
944438349,1.684266
944475025,1.757583
944513088,1.798673
944554424,1.81398
944595846,1.693934
944636457,1.577061
944676170,1.615734
944762721,1.664124
944801271,1.686683
944842792,1.56981
944888228,1.627819
944927963,1.652845
944971358,1.828483
945011911,1.56417
945050943,1.573838
945092887,3.159007
945134456,1.614928
945174811,1.71891
945218854,1.821231
945261274,1.880096
945304176,1.870428
945351483,1.747915
945392493,1.594786
945477560,1.643127
945518586,1.638292
945560607,1.585924
945605930,1.584312
945647203,1.614928
945688971,1.647155
945735712,1.792227
945779993,1.527915
945825428,1.658485
945865721,0.85019
945906243,1.652845
945947792,1.635875
945991767,1.789004
946038362,1.833316
946078917,1.852653
946123267,1.556919
946215749,1.67621
946260328,1.602037
946303751,1.590758
946347162,1.571421
946391970,1.445736
946434775,1.672987
946477318,1.740664
946519395,1.566587
946560354,1.567393
946602748,1.177345
946645486,1.625402
946689681,1.755166
946735742,1.793033
946778485,1.876873
946821724,1.791421
946864770,1.635875
946954664,1.641515
946999047,1.608482
947043351,1.634264
947088420,1.589146
947129731,1.600426
947177501,1.714882
947221946,1.615734
947269036,1.560948
947318969,2.63436
947367002,1.628624
947409793,1.715688
947460823,1.829288
947503659,1.805118
947550115,1.751943
947592973,1.592369
947636604,1.603648
947728512,1.608482
947774971,1.579478
947820628,1.590758
947865833,1.608482
947911395,1.777725
947954885,1.535972
948000250,1.535166
948043923,2.649668
948089218,1.665736
948138657,1.712465
948184658,1.801895
948232729,1.822843
948280728,1.763223
948324870,1.56981
948375274,1.602037
948422787,1.631041
948517436,1.606871
948568723,1.59398
948615729,1.747109
948661776,1.711659
948709010,1.569004
948754421,2.65853
948802300,1.411847
948850577,1.713271
948900620,1.810758
948948722,1.829288
948994107,1.826871
949043349,1.639904
949089252,1.620568
949140314,1.652039
949187131,1.597203
949238996,1.612511
949330728,1.802701
949382631,1.498105
949431288,1.570616
949477761,2.284646
949524632,1.666541
949575363,1.693129
949624124,1.812369
949673088,1.779336
949723361,1.705214
949773178,1.593175
949824846,1.615734
949872212,1.614122
949921827,1.619762
949974883,1.606065
950028023,1.576255
950077524,1.706825
950173241,2.843887
950222604,1.577061
950276062,1.685072
950323978,1.73583
950374813,1.809952
950427214,1.712465
950477713,1.583507
950529563,1.606065
950583304,1.614122
950634694,1.573033
950681793,1.586729
950736947,1.709242
950788826,1.549668
950841768,1.560142
950894582,1.664124
950945034,1.642321
951042182,1.81398
951095322,1.809146
951149471,1.644738
951205744,1.616539
951266871,1.682655
951324309,1.644738
951377940,1.592369
951432130,1.664124
951491880,1.548057
951545072,1.539194
951599409,1.190236
951655342,1.673793
951708198,1.792227
951763540,1.872039
951819497,1.793033
951871417,1.600426
951974670,1.615734
952026823,1.614122
952083082,1.611705
952138052,1.63507
952194685,1.655262
952249569,1.561753
952302543,2.43853
952358528,1.65929
952411705,1.73583
952463149,1.847013
952517109,1.793033
952574098,1.579478
952627219,1.608482
952680677,1.639904
952740230,1.589952
952793789,1.558531
952895123,1.727773
952951931,1.525498
953006269,3.094553
953061764,1.651234
953121596,1.743081
953176071,1.809952
953234282,1.768057
953290164,1.608482
953346905,1.607677
953402960,1.653651
953457884,1.595592
953511329,1.59398
953570485,1.717299
953627370,1.53436
953685721,1.652039
953746952,1.530332
953848942,1.774502
953910257,1.829288
953967349,1.690712
954022109,1.631847
954078612,1.639098
954133619,1.603648
954194378,1.596397
954253752,1.651234
954313588,1.672987
954371225,1.553697
954457283,1.660096
954497288,1.693129
954539119,1.768057
954579848,1.841373
954620463,1.838956
954660826,1.755972
954745014,1.607677
954785218,1.652845
954821912,1.677821
954860584,1.606871
954902867,1.606871
954941201,1.618151
954983693,1.619762
955029000,1.859149
955069155,1.549668
955107958,1.548057
955144597,3.162229
955182756,1.557725
955224317,1.689906
955261903,1.768862
955300432,1.828483
955346450,1.845402
955437820,1.610899
955478618,1.477157
955517833,1.608482
955555919,1.622985
955596386,1.620568
955635895,1.601231
955678451,1.589146
955716988,1.613317
955759094,1.868817
955799384,1.537583
955840965,1.54564
955882506,3.163035
955924223,1.525498
955964606,1.685878
956004370,1.72455
956046336,1.783365
956132075,1.687489
956170382,1.59398
956208645,1.56981
956248841,1.627013
956290595,1.608482
956333171,1.608482
956372946,1.551279
956412868,1.614928
956455388,1.771279
956493542,1.616539
956536352,1.551279
956577533,1.930854
956620950,1.240238
956658888,1.663319
956702465,1.764834
956741693,1.824454
956826606,1.792227
956873860,1.628624
956919098,1.65929
956961741,1.639904
957008115,1.639098
957048310,1.614122
957091377,1.660902
957133366,1.603648
957178077,1.78981
957221320,1.654456
957263180,1.52872
957305842,2.008199
957348030,1.228103
957390391,1.687489
957431324,1.745498
957473906,1.867205
957563459,1.728579
957605858,1.606871
957650729,1.586729
957692028,1.62943
957738674,1.576255
957784273,1.590758
957824726,1.597203
957870379,1.596397
957916292,1.796255
957959933,1.540806
958007951,1.553697
958050958,1.104028
958098917,1.606871
958141268,1.71891
958183568,1.773697
958229278,1.81398
958322495,1.574644
958367945,1.614928
958412569,1.65929
958454951,1.614122
958499369,1.610899
958542977,1.598814
958590596,1.794644
958634898,1.65929
958680656,1.554502
958725563,2.435308
958774161,1.544834
958819775,1.691517
958862387,1.908295
958905191,1.815592
958952639,1.868817
958998343,1.636681
959090868,1.710854
959139897,1.692323
959187372,1.72455
959232532,1.551279
959276755,1.489242
959322851,1.656873
959372099,1.434406
959422246,1.401373
959468969,0.9476768
959515734,1.602843
959562266,1.626207
959612819,1.72455
959657828,1.732607
959706015,1.62943
959755417,1.495688
959802988,1.573838
959897737,1.513413
959949622,1.542417
959996926,1.692323
960043728,1.571421
960094978,1.548862
960144610,2.498201
960195802,1.634264
960245858,1.762417
960292484,1.857537
960340179,1.832511
960389924,1.722939
960439906,1.622985
960493458,1.67057
960551240,1.725356
960604072,1.639098
960654217,1.66493
960750301,1.601231
960805448,1.547251
960855567,1.187819
960908213,1.722939
960957460,1.772085
961008742,1.892181
961063674,1.78981
961114293,1.593175
961163877,1.60526
961217452,1.600426
961264719,1.592369
961316703,1.60526
961367370,1.603648
961419207,1.793033
961469844,1.523081
961519717,1.883319
961617354,1.643932
961665691,1.774502
961713170,1.86076
961764449,1.809952
961818233,1.567393
961869403,1.582701
961919786,1.614122
961973994,1.548862
962024385,1.573033
962075749,1.566587
962126091,1.73019
962177838,1.513413
962229159,1.579478
962284206,0.9807095
962334436,1.644738
962388686,1.73583
962486950,1.859149
962538286,1.547251
962590966,1.624596
962642326,1.634264
962691993,1.622985
962747270,1.586729
962800300,1.572227
962853059,1.632653
962912375,1.621373
962965171,1.567393
963021513,2.000142
963075785,1.652845
963128972,1.761611
963180095,1.889764
963233186,1.847013
963288523,1.631041
963390531,1.627013
963446063,1.606871
963499347,1.608482
963552742,1.569004
963608938,1.620568
963668499,1.60526
963724542,1.628624
963782070,1.26038
963837938,1.607677
963891274,1.801089
963949571,1.904266
964004905,1.788199
964059926,1.644738
964118974,1.572227
964175336,1.612511
964233505,1.56417
964341422,1.635875
964396506,1.59398
964451458,1.711659
964504726,1.555308
964559999,2.653697
964621555,1.67057
964676427,1.717299
964734248,1.839762
964796265,1.776114
964855227,1.558531
964914087,1.600426
964969742,1.601231
965025655,1.606871
965082433,1.627819
965139604,1.577867
965200791,1.81962
965302448,1.483603
965360023,1.299858
965417811,1.711659
965509797,1.889764
965547381,1.887347
965584730,1.679432
965620701,1.586729
965658779,1.530332
965694969,1.602843
965731814,1.602843
965767150,1.586729
965803423,1.610094
965841835,1.573033
965880085,1.570616
965915798,1.570616
965952508,1.610094
966037311,1.552085
966073616,1.540806
966113885,3.163841
966152730,1.573033
966192734,1.650428
966228870,1.756777
966269076,1.839762
966305053,1.891376
966345659,1.880902
966387481,1.62943
966428001,1.539194
966467187,1.638292
966510110,1.673793
966546644,1.533555
966589055,1.577867
966626013,1.587535
966712760,1.598814
966750302,1.716493
966789121,1.668958
966828373,1.566587
966868061,1.458627
966907153,1.651234
966943856,1.60526
966981729,1.689101
967019316,1.747109
967056399,1.822037
967098898,1.859149
967138015,1.760806
967180523,1.621373
967222523,1.585118
967260672,1.595592
967303146,1.651234
967391854,1.600426
967433141,1.606871
967477670,1.57545
967518177,1.668153
967561266,1.82526
967599742,1.537583
967638445,1.548862
967680883,2.643223
967723958,1.668153
967766518,1.706825
967808279,1.826871
967847602,1.900238
967890749,1.90185
967929487,1.703603
967971475,1.577867
968013132,1.612511
968104247,1.587535
968145923,1.606065
968190327,1.589952
968230878,1.542417
968271565,1.606065
968311794,1.799478
968355062,1.640709
968399326,1.557725
968443229,2.192749
968486994,1.378009
968530192,1.710854
968574093,1.750332
968615382,1.868011
968658702,1.90185
968704611,1.732607
968749928,1.564976
968839034,1.602037
968881241,1.607677
968921566,1.594786
968968901,1.595592
969009861,1.651234
969055271,1.556113
969100563,1.823648
969145557,1.562559
969193055,1.568199
969242694,1.636681
969287683,1.666541
969331299,1.72455
969377536,1.826871
969424018,1.867205
969472760,1.783365
969519314,1.549668
969611749,1.606065
969654325,1.62379
969701896,1.589952
969747606,1.595592
969795850,1.553697
969850281,1.785782
969900102,1.562559
969945762,1.463461
969993247,1.271659
970045699,1.626207
970089791,1.938105
970138791,1.815592
970186250,1.794644
970231329,1.720522
970282822,1.640709
970329087,1.62943
970420837,1.583507
970471725,1.603648
970517857,1.580284
970566551,1.667347
970615124,1.567393
970664298,1.571421
970710806,3.118723
970758884,1.601231
970808630,1.723745
970854005,1.793838
970899099,1.893793
970947344,1.836539
970997192,1.626207
971046863,1.523081
971094474,1.588341
971149031,1.562559
971242380,1.588341
971292008,1.622179
971341266,1.796255
971388450,1.541611
971435148,1.600426
971486928,1.184596
971536036,1.697963
971584286,1.757583
971631490,1.84943
971680484,1.900238
971729937,1.685072
971778883,1.554502
971825352,1.586729
971879521,1.59398
971930197,1.604454
971981078,1.566587
972083000,1.743886
972134011,1.52872
972185968,1.48602
972237006,1.118531
972286726,1.660096
972334290,1.730996
972382341,1.828483
972436571,1.805118
972489756,1.624596
972543537,1.603648
972595173,1.613317
972642841,1.622179
972696040,1.608482
972750258,1.608482
972801770,1.772891
972854737,1.56981
972957483,1.452987
973011064,1.683461
973061298,1.776919
973112090,1.8664
973166441,1.876873
973221932,1.639904
973275966,1.596397
973335332,1.619762
973388544,1.618956
973441314,1.602843
973494366,1.603648
973546899,1.750332
973604230,1.535972
973655888,1.56981
973709677,1.381231
973769562,1.704408
973871353,1.883319
973927131,1.715688
973981361,1.564976
974034171,1.595592
974088259,1.610899
974142513,1.592369
974199980,1.582701
974253261,1.631847
974311243,1.654456
974364681,1.56981
974420950,2.64
974475953,1.655262
974532305,1.760806
974586494,1.847819
974641738,1.814786
974693474,1.56981
974790840,1.603648
974843712,1.595592
974896940,1.570616
974955427,1.579478
975010683,1.72455
975063886,1.535972
975118640,1.581895
975174042,1.274076
975228682,1.693129
975285996,1.809952
975341978,1.845402
975398219,1.683461
975450825,1.598814
975508517,1.650428
975563010,1.672987
975620619,1.62943
975726871,1.646349
975785196,1.727773
975842131,1.541611
975903820,1.628624
975958213,1.683461
976018059,1.793838
976072485,1.927631
976129999,1.840568
976189014,1.614928
976246811,1.634264
976303694,1.624596
976361455,1.602037
976449675,1.608482
976487225,1.627819
976521822,1.625402
976557630,1.844596
976639631,1.560142
976678048,3.164646
976718008,1.57545
976759420,1.689906
976794231,1.769668
976833407,1.834928
976872703,1.912323
976912309,1.801895
976953668,1.602843
976991233,1.606065
977031324,1.576255
977068537,1.618151
977104227,1.585924
977143642,1.589952
977183804,1.544834
977222625,1.580284
977307567,1.647155
977343337,1.813175
977382976,1.553697
977419949,1.548862
977459039,3.165452
977497567,1.457015
977537794,1.673793
977573423,1.721328
977615822,1.805923
977652857,1.85507
977690155,1.82526
977729109,1.633458
977768781,1.561753
977807907,1.563365
977849570,1.607677
977892343,1.586729
977972933,1.579478
978013401,1.572227
978050979,1.59398
978090587,1.628624
978134027,1.797867
978178765,1.554502
978218616,1.506967
978258454,1.558531
978296384,1.656873
978340390,1.712465
978378655,1.793838
978418466,1.861565
978461257,1.84379
978503433,1.704408
978546920,1.600426
978591985,1.664124
978680274,1.639904
978720725,1.620568
978766696,1.638292
978810098,1.645544
978856054,1.651234
978899480,1.745498
978941594,1.560948
978980857,1.585924
979025165,3.165452
979068652,1.559336
979116857,1.720522
979167029,1.811563
979214678,1.869622
979256949,1.839762
979300962,1.613317
979353276,1.561753
979438170,1.619762
979481947,1.600426
979524707,1.586729
979567124,1.585924
979614238,1.592369
979657096,1.612511
979698421,1.826066
979743624,1.541611
979786158,1.490048
979831697,1.286162
979876797,1.619762
979920834,1.677821
979963816,1.761611
980010257,1.813175
980055715,1.743081
980098628,1.537583
980186855,1.564976
980234000,1.561753
980281809,1.556919
980329207,1.548862
980373324,1.569004
980420983,1.555308
980465666,1.746303
980510512,1.511801
980556124,1.560948
980599691,2.986542
980644195,1.650428
980693718,1.739052
980739512,1.814786
980783821,1.889764
980830365,1.81962
980874736,1.607677
980962556,1.595592
981008199,1.625402
981052004,1.603648
981100524,1.582701
981147484,1.602037
981194718,1.610094
981246024,1.792227
981293525,1.562559
981345867,2.193555
981393638,1.357867
981440548,1.685878
981486100,1.794644
981530269,1.850236
981579427,1.846207
981628398,1.638292
981679200,1.59962
981771892,1.627819
981818933,1.611705
981868916,1.611705
981921904,1.602037
981969915,1.740664
982022237,1.540806
982071231,1.530332
982120720,1.098389
982167253,1.673793
982215842,1.761611
982266999,1.85507
982318255,1.864788
982368465,1.647155
982421632,1.576255
982471191,1.618151
982522131,1.589146
982614800,1.588341
982665120,1.590758
982721510,1.742275
982769939,1.522275
982819678,1.459432
982875160,1.152369
982929191,1.689906
982979037,1.743081
983029878,1.872039
983079489,1.767251
983129867,1.552891
983180553,1.541611
983233468,1.581089
983283040,1.554502
983334212,1.571421
983383044,1.548862
983482623,1.764834
983535431,1.554502
983586213,2.791517
983636405,1.574644
983687320,1.695546
983736821,1.776919
983786583,1.853458
983837605,1.721328
983888287,1.572227
983941858,1.588341
983995845,1.609288
984046553,1.626207
984095919,1.592369
984148557,1.609288
984200426,1.753555
984255036,1.574644
984350916,1.228103
984405416,1.683461
984460256,1.751138
984510970,1.841373
984567239,1.779336
984619486,1.583507
984673425,1.639904
984730927,1.633458
984787523,1.622985
984841322,1.59398
984897787,1.637487
984951266,1.749526
985008504,1.531138
985060142,3.162229
985114807,1.660902
985169417,1.757583
985270628,1.834928
985322047,1.673793
985375852,1.596397
985427790,1.654456
985482861,1.606065
985534934,1.608482
985586681,1.579478
985645646,1.627819
985698441,1.711659
985754918,1.536777
985812905,2.528817
985865570,1.637487
985923841,1.712465
985980965,1.851847
986035329,1.792227
986096640,1.558531
986193448,1.604454
986251220,1.601231
986307608,1.572227
986360773,1.585924
986417553,1.672987
986473848,1.595592
986532071,1.560142
986588059,0.9952117
986641639,1.692323
986705952,1.793838
986758908,1.84943
986818064,1.717299
986873960,1.567393
986933668,1.640709
986989533,1.610899
987048210,1.612511
987152544,1.610899
987207197,1.828483
987262074,1.550474
987352453,1.302275
987389662,1.70038
987428249,1.758389
987463272,1.827677
987498927,1.882513
987533639,1.876068
987570403,1.741469
987610865,1.641515
987651101,1.621373
987689499,1.632653
987726036,1.627013
987762680,1.624596
987802062,1.577061
987880287,1.570616
987917005,1.606065
987957988,1.776919
987995896,1.609288
988036450,1.56417
988079722,2.570712
988118210,1.268437
988155268,1.67057
988196398,1.708437
988237803,1.831705
988280092,1.876068
988320113,1.818814
988359301,1.62943
988395271,1.537583
988438525,1.594786
988480301,1.609288
988572573,1.585924
988620447,1.612511
988664785,1.577867
988705360,1.620568
988746527,1.823648
988791544,1.558531
988830769,1.554502
988870949,3.159007
988911764,1.625402
988950481,1.70038
988991947,1.745498
989031128,1.847819
989069383,1.892987
989114448,1.744692
989153937,1.573838
989195877,1.57545
989281783,1.581089
989324072,1.573838
989364414,1.573033
989405917,1.576255
989447301,1.577061
989487540,1.619762
989527493,1.81398
989569808,1.558531
989613664,1.520664
989654332,2.29512
989693489,1.661707
989738268,1.728579
989779170,1.805923
989822117,1.877679
989864621,1.851847
989904547,1.674598
989995480,1.63507
990041565,1.634264
990085082,1.606871
990128980,1.608482
990172170,1.602843
990215973,1.614928
990259621,1.751138
990302025,1.664124
990343017,1.588341
990390622,2.170995
990433105,1.286967
990478659,1.680238
990529330,1.79545
990574563,1.868011
990622111,1.85507
990665505,1.656873
990749698,1.598814
990791795,1.610094
990834936,1.606065
990881524,1.582701
990926631,1.587535
990971187,1.614122
991014665,1.794644
991057494,1.631041
991104268,1.543223
991155015,3.168675
991201231,1.619762
991250061,1.702797
991298172,1.809146
991343752,1.883319
991389228,1.814786
991434429,1.59398
991529136,1.609288
991576059,1.615734
991625475,1.573838
991675570,1.587535
991721822,1.579478
991768058,1.756777
991815545,1.54
991862766,1.530332
991914158,2.777015
991960508,1.62379
992007510,1.693129
992059465,1.805923
992107572,1.853458
992156401,1.709242
992200959,1.56981
992247630,1.568199
992337038,1.615734
992385081,1.596397
992436050,1.608482
992482693,1.598814
992531927,1.719716
992580022,1.535166
992629805,1.555308
992678415,1.742275
992726731,1.625402
992774492,1.735024
992821665,1.807535
992868673,1.822843
992916115,1.726162
992965064,1.586729
993010881,1.615734
993061305,1.644738
993162125,1.600426
993209979,1.600426
993258154,1.684266
993308638,1.671376
993356913,1.564976
993407939,3.161424
993457246,1.62943
993508226,1.712465
993558131,1.833316
993604966,1.887347
993655023,1.766445
993703956,1.591563
993754547,1.631041
993807675,1.626207
993860837,1.606065
993911123,1.603648
994008798,1.627819
994056843,1.841373
994107999,1.556919
994157525,1.745498
994208718,1.435212
994261328,1.716493
994312586,1.809146
994363010,1.892987
994413498,1.802701
994461210,1.583507
994513533,1.610094
994563306,1.60526
994613524,1.621373
994665878,1.578672
994717050,1.600426
994770316,1.568199
994867947,1.535166
994916881,1.51019
994970394,1.18379
995024073,1.667347
995076374,1.772891
995133147,1.864788
995185395,1.749526
995237045,1.581089
995290373,1.585924
995340780,1.613317
995393022,1.616539
995446441,1.600426
995501339,1.602037
995553988,1.742275
995604403,1.548057
995658616,1.498911
995753022,1.644738
995807471,1.763223
995859978,1.863983
995916996,1.847819
995968152,1.639098
996025094,1.627819
996077045,1.630236
996127778,1.618151
996178678,1.601231
996233862,1.602037
996290121,1.728579
996345921,1.542417
996399906,1.585924
996454811,1.424738
996506822,1.668958
996559179,1.776919
996662642,1.746303
996718350,1.581895
996773535,1.596397
996829481,1.588341
996881172,1.586729
996939351,1.577061
996991262,1.601231
997048438,1.622985
997105688,1.519858
997161470,1.722939
997217205,1.628624
997277002,1.728579
997334539,1.827677
997389037,1.737441
997447913,1.532749
997505166,1.579478
997609586,1.580284
997667236,1.574644
997721661,1.698769
997777108,1.548057
997833101,1.523081
997892067,1.242655
997953093,1.672987
998018521,1.803506
998082818,1.818814
998139137,1.652845
998198529,1.603648
998264316,1.597203
998355236,1.601231
998393842,1.604454
998430344,1.641515
998470844,1.831705
998555760,1.489242
998591424,3.161424
998633318,1.612511
998669075,1.665736
998708989,1.737441
998747365,1.782559
998784930,1.824454
998824726,1.736635
998862859,1.585924
998904889,1.540806
998940326,1.573838
998975463,1.574644
999014832,1.567393
999055452,1.580284
999092735,1.556113
999130025,1.550474
999216165,1.521469
999253506,1.518247
999291723,1.837345
999330807,0.9057817
999367846,1.622985
999405439,1.697157
999449354,1.775308
999488445,1.821231
999529114,1.808341
999568870,1.626207
999606817,1.543223
999646134,1.588341
999683183,1.607677
999719714,1.613317
999763641,1.578672
999805477,1.577061
999891880,1.586729
999937509,1.824454
999979355,1.548862
1000020633,1.570616
1000061715,3.157395
1000101483,1.601231
1000139189,1.751138
1000178865,1.827677
1000220880,1.868817
1000263747,1.878485
1000306301,1.746303
1000345915,1.589952
1000386912,1.602843
1000429842,1.611705
1000476035,1.597203
1000517676,1.587535
1000606571,1.56981
1000651849,1.582701
1000695652,1.814786
1000735672,1.535166
1000776900,1.531943
1000821842,1.968721
1000866038,1.639098
1000910068,1.70038
1000955796,1.798673
1000997950,1.829288
1001042253,1.805118
1001082672,1.635875
1001124955,1.573838
1001173714,1.601231
1001216238,1.636681
1001258538,1.580284
1001355471,1.57545
1001404768,1.748721
1001450666,1.564976
1001495024,1.524692
1001538134,2.39583
1001582189,1.418293
1001626419,1.657679
1001672600,1.73019
1001715982,1.834928
1001761370,1.844596
1001805019,1.661707
1001850062,1.573838
1001894551,1.596397
1001939754,1.697157
1001984495,1.552891
1002029935,1.637487
1002116564,1.70038
1002159856,1.800284
1002203870,1.71891
1002247043,1.585924
1002294172,2.08076
1002340883,1.440046
1002385151,1.653651
1002430207,1.714076
1002474414,1.770474
1002517751,1.747109
1002566710,1.577061
1002613095,1.461044
1002660842,1.512607
1002708765,1.54564
1002752691,1.523081
1002800947,1.535166
1002891491,1.612511
1002939089,1.697963
1002986823,1.525498
1003035389,2.55621
1003082223,1.328057
1003132506,1.679432
1003177712,1.785782
1003226364,1.837345
1003272408,1.78417
1003318301,1.614928
1003366640,1.603648
1003413745,1.631041
1003460481,1.657679
1003507780,1.627819
1003553624,1.608482
1003602396,1.672181
1003694612,1.558531
1003740945,1.81398
1003792857,1.461849
1003842784,1.744692
1003894322,1.822037
1003944764,1.900238
1003991028,1.807535
1004041910,1.59398
1004092869,1.583507
1004140902,1.619762
1004194033,1.579478
1004242553,1.578672
1004294001,1.573033
1004342475,1.614122
1004389667,1.801089
1004440546,1.535166
1004538999,1.452987
1004589939,1.67621
1004641183,1.78417
1004688476,1.85507
1004738133,1.814786
1004786653,1.57545
1004840514,1.587535
1004889921,1.603648
1004941475,1.600426
1004991256,1.576255
1005042641,1.607677
1005091671,1.606871
1005140499,1.776919
1005189249,1.622985
1005239173,1.574644
1005290797,3.150144
1005387255,1.713271
1005439691,1.801089
1005490805,1.854264
1005539095,1.699574
1005589412,1.550474
1005642220,1.601231
1005695799,1.612511
1005746990,1.587535
1005800438,1.627819
1005852072,1.593175
1005906548,1.614928
1005956917,1.845402
1006010258,1.568199
1006063963,2.573935
1006115802,1.531138
1006172716,1.716493
1006275585,1.835733
1006329094,1.714882
1006381192,1.596397
1006434750,1.621373
1006488947,1.62943
1006544281,1.603648
1006598508,1.60526
1006651345,1.582701
1006702559,1.761611
1006758443,1.600426
1006812788,1.54
1006870192,0.9235065
1006932222,1.655262
1006991722,1.787393
1007047228,1.893793
1007104311,1.696352
1007211735,1.602037
1007269358,1.606871
1007326180,1.584312
1007380986,1.598814
1007438328,1.604454
1007493488,1.755166
1007549225,1.533555
1007605267,1.536777
1007657824,1.220046
1007715640,1.698769
1007773768,1.813175
1007830941,1.913935
1007887719,1.690712
1007946628,1.584312
1008005782,1.626207
1008061105,1.600426
1008163057,1.584312
1008221661,1.598814
1008279483,1.747915
1008337284,1.564976
1008393623,1.792227
1008456170,1.610094
1008511546,1.685072
1008569028,1.781753
1008626256,1.847013
1008684112,1.616539
1008739910,1.589146
1008831883,1.615734
1008869991,1.595592
1008905691,1.598814
1008943570,1.62379
1008981377,1.606065
1009062420,1.764834
1009096230,1.570616
1009134666,1.550474
1009171530,3.133225
1009208873,1.378009
1009250086,1.671376
1009288105,1.781753
1009328478,1.81962
1009367115,1.8664
1009402661,1.838956
1009439766,1.650428
1009475239,1.616539
1009516079,1.615734
1009556487,1.627013
1009596396,1.626207
1009635201,1.589952
1009719704,1.595592
1009759440,1.654456
1009801056,1.81962
1009839891,1.554502
1009881282,1.510996
1009922580,2.715784
1009963592,1.645544
1010001718,1.735024
1010040989,1.782559
1010082849,1.863177
1010124231,1.870428
1010166386,1.716493
1010210393,1.567393
1010252001,1.602843
1010293490,1.606065
1010331977,1.634264
1010417304,1.597203
1010461632,1.614122
1010502434,1.647961
1010544282,1.833316
1010591665,1.540806
1010636084,1.540806
1010679218,0.9090043
1010718981,1.646349
1010759183,1.711659
1010798778,1.827677
1010840251,1.868011
1010885716,1.838956
1010926259,1.638292
1010968800,1.56417
1011012889,1.576255
1011054574,1.597203
1011141359,1.589146
1011184137,1.536777
1011227712,1.549668
1011269343,1.682655
1011309001,1.535166
1011350753,1.512607
1011393853,2.959149
1011435578,1.318389
1011481445,1.67057
1011525272,1.763223
1011567100,1.81962
1011608765,1.818814
1011652168,1.681044
1011693944,1.581895
1011739177,1.616539
1011782123,1.640709
1011870906,1.585924
1011914826,1.581089
1011957307,1.602843
1012003314,1.801895
1012046540,1.558531
1012092601,1.548057
1012139001,2.1291
1012185035,1.651234
1012229872,1.735024
1012279407,1.816397
1012321974,1.876873
1012368636,1.764028
1012410180,1.598814
1012454086,1.581089
1012498821,1.636681
1012542049,1.651234
1012632656,1.595592
1012677312,1.606065
1012719235,1.668958
1012766708,1.764834
1012808717,1.554502
1012853253,1.658485
1012902244,1.236965
1012949324,1.677015
1012995835,1.769668
1013043783,1.863983
1013086333,1.853458
1013135637,1.655262
1013182693,1.577061
1013228062,1.610094
1013280474,1.618956
1013326160,1.608482
1013416143,1.598814
1013460908,1.614122
1013504711,1.776114
1013554458,1.517441
1013602235,1.558531
1013651760,2.195166
1013699641,1.631041
1013744653,1.725356
1013791899,1.777725
1013837034,1.876873
1013885177,1.755166
1013931356,1.558531
1013981390,1.578672
1014028589,1.560948
1014078918,1.577061
1014126161,1.573033
1014220262,1.595592
1014266654,1.742275
1014316717,1.53436
1014367282,1.48602
1014419157,1.110474
1014469283,1.677821
1014517298,1.769668
1014565856,1.863177
1014614760,1.853458
1014668342,1.633458
1014720636,1.618956
1014769834,1.616539
1014820475,1.607677
1014869141,1.600426
1014922186,1.62943
1014969534,1.620568
1015064277,1.581895
1015117371,1.522275
1015167387,1.247489
1015221472,1.668153
1015275605,1.756777
1015326361,1.854264
1015372927,1.838151
1015425949,1.620568
1015479605,1.588341
1015534335,1.612511
1015584275,1.603648
1015634426,1.588341
1015682866,1.607677
1015735861,1.616539
1015787478,1.803506
1015841268,1.56417
1015947186,1.636681
1016005939,1.742275
1016058717,1.834928
1016111393,1.870428
1016170916,1.608482
1016224868,1.585924
1016277905,1.619762
1016330790,1.593175
1016386241,1.580284
1016439762,1.579478
1016491349,1.601231
1016547660,1.821231
1016598623,1.53436
1016652774,2.823745
1016707574,1.589952
1016761402,1.698769
1016855145,1.833316
1016909135,1.741469
1016967087,1.516635
1017020082,1.552891
1017072825,1.555308
1017127751,1.542417
1017185634,1.537583
1017241089,1.569004
1017294127,1.693934
1017354386,1.523081
1017407582,1.773697
1017462727,1.452987
1017518857,1.653651
1017572663,1.75436
1017626131,1.835733
1017681703,1.687489
1017785301,1.595592
1017839003,1.585924
1017895189,1.564976
1017951703,1.57545
1018005444,1.602037
1018060298,1.827677
1018118988,1.577061
1018174132,3.130808
1018231995,1.614122
1018293560,1.737441
1018348736,1.839762
1018406145,1.822037
1018463010,1.613317
1018518602,1.627013
1018574785,1.631041
1018630177,1.635875
1018733513,1.627013
1018791161,1.861565
1018849327,1.561753
1018906463,3.167869
1018964102,1.65929
1019022950,1.751943
1019084880,1.863983
1019143290,1.802701
1019203021,1.582701
1019241637,1.602037
1019280245,1.627819
1019315063,1.602037
1019353456,1.590758
1019391984,1.585118
1019431010,1.581895
1019469364,1.585924
1019561274,1.579478
1019598102,1.554502
1019634909,1.793838
1019669966,0.9605676
1019709057,1.633458
1019752486,1.685072
1019788385,1.788199
1019826981,1.847819
1019870916,1.806729
1019913008,1.606871
1019952790,1.511801
1019989226,1.547251
1020026221,1.553697
1020063394,1.542417
1020101470,1.506162
1020145344,1.489242
1020228427,1.522275
1020268992,1.714882
1020308877,1.473935
1020350291,1.531943
1020390343,3.163035
1020431854,1.52872
1020471275,1.667347
1020511683,1.745498
1020548588,1.835733
1020587681,1.863983
1020626530,1.848624
1020665376,1.650428
1020708501,1.620568
1020749485,1.633458
1020788833,1.643127
1020826842,1.637487
1020911845,1.618151
1020951619,1.66493
1020994229,1.811563
1021035281,1.543223
1021076676,1.592369
1021117959,3.166258
1021156813,1.432795
1021199778,1.689906
1021240287,1.758389
1021282381,1.805923
1021327998,1.841373
1021371977,1.704408
1021414488,1.562559
1021460737,1.601231
1021500867,1.650428
1021546190,1.610094
1021630679,1.611705
1021673850,1.624596
1021719515,1.834928
1021763112,1.542417
1021805503,1.540806
1021847789,1.178151
1021885457,1.62943
1021930495,1.715688
1021970491,1.764834
1022012704,1.812369
1022057288,1.787393
1022097806,1.624596
1022142879,1.576255
1022188477,1.598009
1022228625,1.598814
1022274707,1.576255
1022365935,1.573033
1022408836,1.70602
1022457786,1.567393
1022501158,1.506967
1022547815,2.954314
1022591225,1.47474
1022633518,1.655262
1022680411,1.726162
1022725600,1.826066
1022770849,1.836539
1022815513,1.622179
1022857683,1.532749
1022903849,1.583507
1022947007,1.571421
1022993447,1.563365
1023037756,1.568199
1023126873,1.651234
1023169949,1.755166
1023218627,1.523081
1023264193,1.972749
1023307754,1.228908
1023350576,1.63507
1023396132,1.721328
1023442575,1.761611
1023490416,1.839762
1023536402,1.685878
1023584602,1.597203
1023628636,1.59962
1023674743,1.603648
1023724545,1.639098
1023774742,1.576255
1023821476,1.602037
1023914730,1.553697
1023960307,1.572227
1024008670,1.84943
1024054690,1.635875
1024102914,1.743081
1024152294,1.81398
1024200333,1.845402
1024249814,1.714882
1024301783,1.613317
1024349054,1.634264
1024395977,1.643932
1024446983,1.615734
1024496795,1.582701
1024546620,1.627013
1024596753,1.777725
1024644388,1.558531
1024732092,1.104834
1024782825,1.674598
1024832937,1.732607
1024885166,1.847013
1024942996,1.768057
1024996934,1.555308
1025048561,1.581895
1025101895,1.598814
1025159070,1.561753
1025211446,1.569004
1025261751,1.607677
1025311623,1.811563
1025363879,1.519858
1025415594,2.590048
1025464543,1.548057
1025518011,1.693934
1025615039,1.845402
1025667839,1.743886
1025719512,1.573838
1025771543,1.602843
1025821671,1.59962
1025873230,1.581895
1025927403,1.60526
1025975772,1.59398
1026024268,1.78417
1026077759,1.535972
1026130296,1.464266
1026183003,0.9589563
1026231807,1.674598
1026288129,1.780142
1026338682,1.864788
1026391065,1.811563
1026485737,1.606065
1026535773,1.59962
1026587202,1.610094
1026640516,1.589952
1026694660,1.584312
1026746156,1.760806
1026800084,1.598814
1026853803,1.568199
1026906070,1.40943
1026956841,1.660902
1027013321,1.751943
1027065400,1.86076
1027119449,1.790616
1027177617,1.580284
1027232894,1.603648
1027290471,1.602843
1027392753,1.587535
1027443239,1.638292
1027497126,1.683461
1027550420,1.536777
1027607107,2.782655
1027664678,1.611705
1027720557,1.716493
1027773849,1.806729
1027825628,1.695546
1027880776,1.598814
1027939397,1.627013
1027995876,1.597203
1028053085,1.614928
1028109870,1.661707
1028163782,1.618956
1028220398,1.770474
1028322596,3.098581
1028379690,1.619762
1028435311,1.702797
1028495273,1.814786
1028551113,1.826871
1028606946,1.589146
1028661130,1.584312
1028716447,1.587535
1028777010,1.574644
1028830831,1.585924
1028887861,1.597203
1028949825,1.805118
1029011254,1.515024
1029068747,3.121945
1029125015,1.637487
1029180858,1.734219
1029284937,1.82526
1029341903,1.581089
1029403146,1.606871
1029462266,1.619762
1029520982,1.59962
1029609877,1.589952
1029644955,1.663319
1029683720,1.835733
1029722053,1.561753
1029759701,1.551279
1029795965,3.150144
1029832204,1.278105
1029870136,1.667347
1029906408,1.758389
1029945901,1.835733
1029983934,1.850236
1030066460,1.67057
1030103497,1.600426
1030141570,1.640709
1030177072,1.658485
1030216993,1.618956
1030257001,1.59398
1030295549,1.584312
1030335821,1.580284
1030372061,1.766445
1030412402,1.706825
1030451703,1.526304
1030493685,1.527915
1030535551,0.9202839
1030577716,1.627013
1030616906,1.734219
1030660233,1.809952
1030745226,1.838956
1030787836,1.647155
1030825080,1.598814
1030863396,1.644738
1030902826,1.644738
1030942312,1.616539
1030980975,1.600426
1031019167,1.60526
1031056813,1.595592
1031097468,1.641515
1031135175,1.845402
1031174462,1.539194
1031217222,1.52872
1031257087,3.15659
1031299429,1.633458
1031341502,1.709242
1031422354,1.847819
1031463694,1.898627
1031505032,1.72455
1031546650,1.609288
1031593472,1.590758
1031634212,1.602843
1031676234,1.598814
1031718068,1.579478
1031757526,1.569004
1031801972,1.584312
1031847067,1.673793
1031889836,1.78417
1031933185,1.537583
1031972894,1.460238
1032016199,1.120142
1032054993,1.606065
1032145176,1.782559
1032186682,1.824454
1032231414,1.808341
1032272343,1.602037
1032317294,1.573033
1032360113,1.587535
1032401193,1.611705
1032442133,1.603648
1032486672,1.595592
1032530560,1.598814
1032576127,1.593175
1032616431,1.734219
1032660641,1.570616
1032701960,1.554502
1032744612,2.994598
1032790744,1.434406
1032882536,1.809952
1032925198,1.891376
1032970297,1.964692
1033012197,1.709242
1033058988,1.658485
1033101145,1.742275
1033143652,1.719716
1033190261,1.627819
1033234863,1.654456
1033281467,1.589952
1033329378,1.865594
1033374764,1.861565
1033416790,1.613317
1033463456,1.646349
1033510191,1.166871
1033558228,1.622985
1033652210,1.818009
1033698510,1.799478
1033741599,1.632653
1033787807,1.547251
1033835455,1.523886
1033883791,1.544028
1033937679,1.527915
1033987742,1.531138
1034034282,1.499716
1034084249,1.738247
1034139409,1.498911
1034187756,1.508579
1034236889,1.079858
1034283014,1.595592
1034331998,1.699574
1034381022,1.800284
1034472062,1.627819
1034521981,1.568199
1034568683,1.592369
1034618887,1.601231
1034667827,1.598814
1034717362,1.56981
1034766372,1.622985
1034813458,1.808341
1034863783,1.542417
1034911359,1.584312
1034958882,1.106445
1035009991,1.674598
1035061535,1.751943
1035109038,1.807535
1035156110,1.753555
1035209979,1.552085
1035305712,1.593175
1035355370,1.553697
1035406424,1.558531
1035454801,1.552085
1035502793,1.699574
1035551818,1.60526
1035601802,1.544834
1035650756,3.152561
1035699350,1.614122
1035750105,1.713271
1035799360,1.807535
1035846306,1.892987
1035898729,1.745498
1035949573,1.620568
1036002066,1.637487
1036057455,1.638292
1036151829,1.621373
1036203391,1.644738
1036255096,1.782559
1036302893,1.555308
1036351924,2.274173
1036402355,1.585924
1036456106,1.714882
1036511855,1.812369
1036565108,1.885736
1036617285,1.689101
1036668259,1.585924
1036722758,1.622179
1036778428,1.632653
1036831794,1.569004
1036886698,1.484408
1036940983,1.525498
1037041307,1.477157
1037093875,2.318485
1037149132,1.583507
1037203926,1.722939
1037259228,1.791421
1037317415,1.86076
1037372391,1.652845
1037425842,1.581089
1037479070,1.608482
1037533334,1.612511
1037591232,1.593175
1037643334,1.597203
1037698487,1.602843
1037757872,1.693129
1037813382,1.553697
1037869591,2.67545
1037966852,1.764028
1038021901,1.818814
1038076496,1.858343
1038129471,1.632653
1038188075,1.602037
1038241713,1.626207
1038296353,1.573033
1038351442,1.601231
1038406748,1.577867
1038462178,1.600426
1038517109,1.627819
1038573026,1.540806
1038627186,2.186304
1038681672,1.611705
1038735959,1.71891
1038790372,1.818009
1038896808,1.595592
1038952181,1.637487
1039005927,1.651234
1039060838,1.603648
1039118302,1.602037
1039173671,1.614122
1039233018,1.744692
1039289503,1.535972
1039346333,1.850236
1039403292,1.558531
1039457625,1.686683
1039517447,1.786587
1039573340,1.837345
1039632159,1.602843
1039694207,1.585924
1039753144,1.614122
1039852183,1.561753
1039913447,1.590758
1040002817,1.848624
1040037303,1.516635
1040073121,1.544028
1040110822,2.827773
1040147123,1.181373
1040183841,1.655262
1040221893,1.703603
1040256968,1.76
1040297437,1.839762
1040332501,1.844596
1040368833,1.713271
1040408766,1.568199
1040447501,1.574644
1040487470,1.597203
1040575046,1.537583
1040610397,1.576255
1040650446,1.582701
1040690512,1.581089
1040729555,1.737441
1040772715,1.678627
1040810789,1.552085
1040851423,1.526304
1040890729,1.495688
1040927012,1.626207
1040966929,1.698769
1041008582,1.787393
1041048366,1.837345
1041087310,1.897821
1041124123,1.730996
1041164476,1.590758
1041246664,1.622985
1041288812,1.637487
1041329095,1.615734
1041370806,1.609288
1041409836,1.614928
1041452551,1.618151
1041492129,1.741469
1041529946,1.541611
1041567893,1.558531
1041609465,2.630332
1041650383,1.241044
1041691374,1.668153
1041731655,1.740664
1041773001,1.821231
1041811417,1.873651
1041851847,1.830899
1041943802,1.622179
1041986850,1.661707
1042027487,1.644738
1042068440,1.596397
1042107890,1.603648
1042150705,1.598814
1042190367,1.716493
1042231890,1.783365
1042277327,1.511801
1042319037,1.596397
1042362980,0.9162554
1042408229,1.650428
1042451055,1.73019
1042492220,1.812369
1042537642,1.841373
1042581560,1.737441
1042672284,1.566587
1042716649,1.596397
1042758770,1.577867
1042799108,1.570616
1042841759,1.576255
1042886356,1.596397
1042933073,1.757583
1042985301,1.536777
1043036173,1.519858
1043081016,3.161424
1043128616,1.622985
1043179960,1.710048
1043225451,1.78981
1043269608,1.851847
1043313618,1.769668
1043361515,1.578672
1043453960,1.598814
1043500336,1.602037
1043546177,1.584312
1043590467,1.592369
1043635467,1.598814
1043682043,1.844596
1043728487,1.573033
1043773547,1.57545
1043819161,1.163648
1043866498,1.677015
1043909836,1.776114
1043951475,1.851041
1043998119,1.834928
1044046549,1.722939
1044093595,1.577867
1044138612,1.598814
1044232790,1.606065
1044277612,1.595592
1044324369,1.608482
1044372324,1.751138
1044417809,1.519052
1044464551,1.530332
1044511758,2.594076
1044559856,1.625402
1044604157,1.721328
1044652573,1.829288
1044698261,1.86076
1044746544,1.757583
1044791698,1.616539
1044841672,1.606065
1044888923,1.626207
1044936447,1.593175
1045035941,1.596397
1045084859,1.758389
1045133160,1.509384
1045181848,1.537583
1045227723,2.502229
1045275664,1.618956
1045321589,1.721328
1045372674,1.818814
1045424799,1.8664
1045476253,1.666541
1045525731,1.582701
1045571035,1.598814
1045622317,1.603648
1045674265,1.573838
1045724892,1.587535
1045777153,1.591563
1045870641,1.535972
1045920452,1.484408
1045970115,1.037963
1046022232,1.645544
1046074010,1.751943
1046125047,1.847819
1046180464,1.792227
1046230984,1.609288
1046281542,1.617345
1046331623,1.616539
1046383044,1.614928
1046440090,1.564976
1046490690,1.598814
1046540361,1.822843
1046596770,1.54564
1046650357,2.657725
1046749327,1.706825
1046799352,1.773697
1046850053,1.821231
1046901453,1.762417
1046951350,1.576255
1047008054,1.600426
1047060331,1.592369
1047114541,1.590758
1047166833,1.57545
1047220757,1.633458
1047272950,1.638292
1047324718,1.529526
1047378084,3.159812
1047429472,1.626207
1047481421,1.706825
1047533174,1.800284
1047630661,1.683461
1047684070,1.580284
1047737933,1.583507
1047790089,1.622985
1047839839,1.603648
1047893140,1.616539
1047943061,1.614122
1047997195,1.858343
1048049953,1.544834
1048105478,2.51512
1048160339,1.610094
1048212132,1.71891
1048269374,1.92602
1048321619,1.854264
1048377033,1.643932
1048437294,1.566587
1048540625,1.600426
1048595221,1.569004
1048654743,1.584312
1048712601,1.67621
1048764674,1.653651
1048820059,1.532749
1048877126,1.916352
1048931396,1.666541
1048986126,1.775308
1049041374,1.824454
1049094428,1.828483
1049151696,1.585924
1049204612,1.614122
1049258966,1.618956
1049319014,1.613317
1049374276,1.593175
1049477562,1.750332
1049536221,1.535972
1049589602,1.523081
1049648918,1.270854
1049707167,1.713271
1049763892,1.826871
1049826292,1.844596
1049883939,1.656873
1049942695,1.594786
1050000025,1.618956
1050054222,1.592369
1050112128,1.570616
1050170861,1.581089
1050226806,1.760806
1050283694,1.526304
1050371055,2.257203
1050452940,1.673793
1050490026,1.772891
1050526108,1.828483
1050565263,1.847819
1050601588,1.745498
1050640680,1.566587
1050679169,1.573838
1050714114,1.578672
1050749289,1.613317
1050786587,1.608482
1050824626,1.581089
1050863009,1.586729
1050900679,1.592369
1050938258,1.585924
1050974036,1.742275
1051011677,1.567393
1051099353,3.16948
1051139783,1.466683
1051176740,1.641515
1051215834,1.71891
1051250635,1.815592
1051293593,1.87929
1051329726,1.856732
1051375941,1.594786
1051416858,1.562559
1051456388,1.584312
1051497087,1.598814
1051540343,1.579478
1051579095,1.589952
1051615435,1.577867
1051657641,1.587535
1051698703,1.716493
1051789911,1.573033
1051830022,1.893793
1051868870,1.025827
1051907586,1.618151
1051947933,1.716493
1051988177,1.811563
1052033167,1.841373
1052081982,1.809146
1052128760,1.622179
1052170340,1.632653
1052212013,1.637487
1052260552,1.624596
1052304214,1.603648
1052346888,1.614928
1052387814,1.614122
1052431083,1.738247
1052516659,1.535166
1052558010,2.98493
1052600123,1.299858
1052640980,1.639098
1052685448,1.735024
1052727812,1.818814
1052771339,1.830899
1052814819,1.672181
1052856105,1.563365
1052902744,1.597203
1052943398,1.634264
1052983038,1.583507
1053027046,1.576255
1053072519,1.570616
1053116529,1.584312
1053158673,1.779336
1053254580,1.543223
1053298176,3.16948
1053342317,1.611705
1053385937,1.714076
1053428015,1.769668
1053470852,1.874456
1053515401,1.858343
1053560636,1.681044
1053603286,1.576255
1053648175,1.594786
1053693056,1.610094
1053736314,1.583507
1053778422,1.579478
1053827149,1.595592
1053870838,1.608482
1053915888,1.76
1054009573,1.597203
1054055235,3.154978
1054102620,1.624596
1054149649,1.740664
1054193950,1.786587
1054239411,1.847013
1054283692,1.788199
1054330215,1.604454
1054377621,1.550474
1054425881,1.626207
1054472066,1.598814
1054515332,1.584312
1054565294,1.59962
1054615243,1.577867
1054661855,1.639904
1054709885,1.79545
1054804364,2.001753
1054849697,1.303886
1054897552,1.643932
1054945674,1.764834
1054994462,1.8664
1055045651,1.874456
1055093200,1.619762
1055140857,1.560142
1055185695,1.592369
1055232780,1.590758
1055287061,1.593175
1055333888,1.570616
1055381881,1.586729
1055434159,1.639098
1055483708,1.715688
1055534099,1.543223
1055625335,1.437629
1055672780,1.682655
1055721162,1.75436
1055768363,1.822843
1055820433,1.779336
1055868832,1.612511
1055920342,1.57545
1055968800,1.617345
1056017432,1.595592
1056065928,1.602843
1056113296,1.578672
1056163214,1.581895
1056210390,1.729384
1056257924,1.544028
1056305184,1.560948
1056353694,2.818911
1056445479,1.740664
1056496071,1.813175
1056545009,1.85507
1056594291,1.70602
1056646017,1.589146
1056695432,1.585118
1056747405,1.59962
1056798103,1.564976
1056848925,1.563365
1056899721,1.556919
1056948139,1.781753
1057001775,1.508579
1057051564,1.53436
1057103448,1.71891
1057158731,1.628624
1057211760,1.780948
1057307497,1.857537
1057362985,1.585924
1057417668,1.584312
1057466619,1.613317
1057517991,1.588341
1057571716,1.57545
1057622578,1.564976
1057674109,1.610094
1057725975,1.839762
1057775433,1.509384
1057830081,2.587631
1057880455,1.579478
1057931085,1.693934
1057986101,1.780142
1058040298,1.816397
1058095961,1.672987
1058195845,1.57545
1058246303,1.566587
1058302678,1.573033
1058357737,1.567393
1058411563,1.584312
1058469761,1.743886
1058524377,1.527915
1058579069,1.583507
1058633507,1.258769
1058684862,1.677821
1058741194,1.758389
1058797166,1.822843
1058853324,1.732607
1058908701,1.614928
1058961505,1.609288
1059011231,1.633458
1059110037,1.584312
1059162598,1.611705
1059219168,1.70038
1059271951,1.523081
1059328474,3.160618
1059382340,1.590758
1059435215,1.67621
1059488031,1.818814
1059543420,1.817203
1059598274,1.577867
1059654614,1.568199
1059709792,1.602037
1059766238,1.589146
1059820302,1.561753
1059874746,1.570616
1059933890,1.769668
1060034534,1.523081
1060089260,1.351421
1060144641,1.668153
1060200101,1.751943
1060258630,1.854264
1060312677,1.783365
1060368881,1.581089
1060427503,1.625402
1060484514,1.633458
1060543661,1.616539
1060602352,1.609288
1060657894,1.651234
1060713583,1.661707
1060807028,3.171092
1060846180,1.358672
1060884485,1.680238
1060963651,1.789004
1060996601,1.851041
1061034527,1.846207
1061072718,1.62943
1061113256,1.540806
1061158069,1.566587
1061201684,1.618956
1061240124,1.576255
1061280484,1.580284
1061325513,1.582701
1061364107,1.588341
1061402301,1.634264
1061441653,1.835733
1061483572,1.508579
1061521077,1.515024
1061558614,3.16948
1061640769,1.680238
1061679716,1.73583
1061721932,1.822843
1061763150,1.864788
1061803316,1.73583
1061841600,1.242655
1061879546,1.577867
1061920714,1.624596
1061958997,1.639904
1061997370,1.600426
1062039065,1.592369
1062082507,1.609288
1062123310,1.584312
1062161979,1.772891
1062206639,1.622179
1062246783,1.556919
1062329002,1.149146
1062369686,1.62943
1062406346,1.722939
1062446039,1.764834
1062488715,1.863983
1062530702,1.857537
1062571709,1.628624
1062613352,1.582701
1062655001,1.606871
1062694891,1.63507
1062733558,1.606871
1062779625,1.60526
1062819758,1.614928
1062861506,1.597203
1062908631,1.878485
1062952860,1.562559
1063041506,2.303177
1063082573,1.618151
1063124042,1.73019
1063164975,1.831705
1063206297,1.869622
1063249882,1.93891
1063294297,1.647155
1063339594,1.570616
1063382614,1.586729
1063423637,1.635875
1063470422,1.680238
1063516290,1.573838
1063559712,1.619762
1063605981,1.602843
1063651057,1.847013
1063692782,1.539194
1063780311,2.005782
1063826793,1.60526
1063871519,1.669764
1063920606,1.619762
1063963149,1.834928
1064006249,1.78981
1064048798,1.590758
1064092070,1.541611
1064141574,1.63507
1064185840,1.59962
1064230482,1.570616
1064280492,1.535166
1064325703,1.584312
1064371719,1.729384
1064417175,1.487631
1064462775,1.53436
1064551122,1.576255
1064595425,1.715688
1064644765,1.807535
1064688249,1.834122
1064735213,1.830899
1064782598,1.606065
1064828537,1.581895
1064874823,1.568199
1064920462,1.616539
1064966154,1.634264
1065010199,1.587535
1065054420,1.598814
1065098515,1.742275
1065142868,1.732607
1065190013,1.558531
1065236359,2.240284
1065323455,1.656873
1065369157,1.762417
1065415873,1.827677
1065461655,1.828483
1065511026,1.666541
1065558425,1.548057
1065609022,1.616539
1065657013,1.56981
1065702441,1.581895
1065751903,1.553697
1065798850,1.567393
1065847679,1.743886
1065900880,1.530332
1065950806,1.461044
1065999431,1.020188
1066052519,1.67057
1066146094,1.885736
1066193133,1.837345
1066242463,1.705214
1066291885,1.57545
1066338911,1.689906
1066386665,1.651234
1066435457,1.621373
1066482058,1.633458
1066533300,1.615734
1066581592,1.82526
1066629679,1.542417
1066682231,1.498911
1066733818,0.9267293
1066782200,1.627013
1066833649,1.692323
1066884181,1.813175
1066974868,1.634264
1067025682,1.577061
1067076873,1.57545
1067127563,1.631041
1067182613,1.589146
1067233134,1.582701
1067284852,1.666541
1067335822,1.682655
1067384010,1.527915
1067435689,3.162229
1067486962,1.624596
1067536061,1.719716
1067588456,1.797061
1067640372,1.832511
1067689910,1.805118
1067742423,1.580284
1067835145,1.60526
1067887042,1.631847
1067937748,1.560948
1067991177,1.63507
1068042480,1.834928
1068091096,1.492465
1068140754,2.826967
1068192461,1.564976
1068245590,1.692323
1068300154,1.812369
1068352416,1.827677
1068404221,1.672181
1068454726,1.573838
1068505471,1.597203
1068561632,1.616539
1068617809,1.56417
1068714615,1.672181
1068768479,1.596397
1068819255,1.571421
1068875673,2.60455
1068926921,1.50455
1068982641,1.919574
1069038348,2.006587
1069093552,1.980806
1069149996,1.66493
1069208022,1.684266
1069262560,1.689101
1069313577,1.613317
1069370608,1.596397
1069427559,1.612511
1069484785,1.527109
1069538022,1.412653
1069634531,1.513413
1069690177,1.646349
1069746329,1.764028
1069805867,1.822843
1069869711,1.54564
1069929588,1.543223
1069985944,1.602037
1070042108,1.572227
1070106001,1.581089
1070163020,1.751138
1070220481,1.531943
1070276002,1.908295
1070335621,1.555308
1070390499,1.685072
1070446101,1.758389
1070503593,1.777725
1070600278,1.521469
1070659240,1.590758
1070718268,1.573838
1070778804,1.577061
1070835020,1.583507
1070892162,1.863983
1070953088,1.56981
1071009022,3.16948
1071064991,1.666541
1071124279,1.739052
1071182713,1.886541
1071272337,1.626207
1071313875,1.589952
1071351263,1.608482
1071388744,1.606065
1071426089,1.622985
1071506366,1.606871
1071541185,1.611705
1071579315,1.631041
1071617820,1.833316
1071653928,1.516635
1071692359,1.562559
1071732115,3.025214
1071767453,1.129004
1071803138,1.656873
1071845390,1.684266
1071884208,1.76
1071924331,1.851847
1071966620,1.832511
1072005108,1.613317
1072044769,1.552891
1072083808,1.588341
1072165048,1.594786
1072202643,1.582701
1072240430,1.56417
1072281814,1.557725
1072323015,1.640709
1072363730,1.763223
1072403602,1.521469
1072442080,1.465878
1072485649,1.814786
1072528266,1.617345
1072567785,1.697157
1072608148,1.786587
1072648233,1.812369
1072688062,1.840568
1072730323,1.671376
1072772200,1.554502
1072857805,1.615734
1072904590,1.63507
1072945577,1.601231
1072986230,1.650428
1073025434,1.602037
1073066104,1.925214
1073113525,1.556113
1073154492,1.486825
1073196146,1.696352
1073241694,1.656873
1073285704,1.763223
1073328075,1.826871
1073367402,1.906683
1073409539,1.808341
1073451816,1.612511
1073492432,1.592369
1073581232,1.625402
1073624240,1.554502
1073669507,1.562559
1073712567,1.552891
15311,1.710048
58232,1.489242
101181,1.498911
144669,3.167869
186334,1.632653
228288,1.582701
269967,1.719716
311930,1.747109
355328,1.824454
398599,1.642321
440959,1.511801
481719,1.563365
569326,1.606065
611957,1.564976
657575,1.586729
701452,1.584312
747071,1.826871
789628,1.584312
831309,1.464266
877062,2.268482
920325,1.581089
966249,1.687489
1014579,1.772085
1060600,1.85507
1103617,1.743081
1152134,1.53436
1198835,1.543223
1240093,1.612511
1327107,1.601231
1373034,1.612511
1417114,1.610094
1461626,1.84379
1504950,1.587535
1547823,1.533555
1596047,1.587535
1640733,1.633458
1683855,1.774502
1733296,1.818009
1781815,1.821231
1825064,1.783365
1872419,1.573033
1919687,1.63507
1962006,1.653651
2011058,1.593175
2102869,1.616539
2149403,1.762417
2199395,1.538389
2244086,1.57545
2292757,2.254786
2337968,1.596397
2382042,1.687489
2429264,1.822037
2477655,1.842179
2524706,1.751943
2571683,1.537583
2619908,1.589952
2665603,1.603648
2714184,1.578672
2760779,1.585118
2811457,1.592369
2901633,1.602843
2950989,1.531943
2998306,3.166258
3043916,1.723745
3088495,1.640709
3137500,1.748721
3187174,1.777725
3238240,1.760806
3286009,1.531138
3333037,1.569004
3381073,1.589952
3429067,1.535166
3479759,1.552085
3533615,1.549668
3581785,1.774502
3629689,1.548057
3718196,3.157395
3769153,1.592369
3815617,1.689101
3865226,1.792227
3916241,1.848624
3966391,1.701991
4016830,1.573838
4070134,1.59962
4119750,1.735024
4167215,1.621373
4219705,1.611705
4271888,1.631847
4324564,1.762417
4375095,1.544834
4424026,3.159007
4474828,1.652845
4570771,1.776919
4625445,1.829288
4684278,1.56981
4739500,1.594786
4789431,1.668153
4842642,1.603648
4899915,1.542417
4950963,1.582701
5002432,1.751138
5050590,1.411847
5105317,1.457821
5158076,0.8969192
5209592,1.607677
5264271,1.760806
5313495,1.764028
5367618,1.536777
5462490,1.536777
5516684,1.60526
5569455,1.616539
5621496,1.557725
5676322,1.710048
5726990,1.714882
5776052,1.490048
5829585,1.45057
5884675,1.109668
5936205,1.677821
5993918,1.772891
6046254,1.805923
6098704,1.770474
6150823,1.507773
6203018,1.612511
6255207,1.669764
6351497,1.577867
6405182,1.513413
6458667,1.892987
6511501,1.638292
6562902,2.40872
6614678,1.519858
6668001,1.654456
6725942,1.780948
6780270,1.788199
6836326,1.650428
6895372,1.574644
6948872,1.647155
7004506,1.610094
7057722,1.640709
7109499,1.618956
7164857,1.877679
7261435,1.645544
7316662,1.250712
7372231,1.633458
7427284,1.781753
7482933,1.84379
7536841,1.723745
7595886,1.603648
7654928,1.640709
7710058,1.597203
7767566,1.601231
7823165,1.612511
7878257,1.848624
7935205,1.485214
7992870,3.167869
8049775,1.609288
8109806,1.736635
8208518,1.78417
8264318,1.567393
8320268,1.521469
8377211,1.573033
8436363,1.568199
8491708,1.572227
8547888,1.688295
8611082,1.531943
8670259,1.457821
8726791,1.143506
8781351,1.640709
8839138,1.774502
8896136,1.826066
8950714,1.657679
9011103,1.535972
9068576,1.607677
9172790,1.637487
9230448,1.614928
9288812,1.84379
9345573,1.561753
9435281,1.242655
9471174,1.583507
9507180,1.682655
9543194,1.806729
9578346,1.794644
9618491,1.816397
9654860,1.684266
9690163,1.548862
9726695,1.589952
9764297,1.628624
9800879,1.635875
9840302,1.598814
9922877,1.576255
9960828,1.788199
9999493,1.611705
10035027,1.510996
10075163,1.561753
10110652,1.801895
10151154,1.631041
10195454,1.684266
10235912,1.774502
10274612,1.842179
10317312,1.808341
10359109,1.639904
10395561,1.537583
10433735,1.602843
10474577,1.622985
10514147,1.562559
10596755,1.625402
10636022,1.651234
10672957,1.834122
10714387,1.510996
10753153,1.530332
10792372,3.163841
10833950,1.52872
10875660,1.639098
10914004,1.769668
10955458,1.801089
10998028,1.833316
11034558,1.750332
11075372,1.556919
11117351,1.565782
11157123,1.606871
11202446,1.621373
11285763,1.606065
11330332,1.485214
11369980,1.782559
11407296,1.718105
11449515,1.536777
11491190,2.315262
11531758,1.177345
11572940,1.590758
11613484,1.78417
11652781,1.813175
11695319,1.924408
11735329,1.800284
11777263,1.556113
11818272,1.560948
11862156,1.60526
11902059,1.584312
11984216,1.532749
12023331,1.562559
12065115,1.691517
12109419,1.543223
12153655,1.516635
12195737,2.565878
12238832,1.202321
12279107,1.622985
12319584,1.679432
12364463,1.728579
12411377,1.747915
12452272,1.67621
12496217,1.60526
12538713,1.573033
12585235,1.653651
12626042,1.651234
12712545,1.661707
12759066,1.767251
12803955,1.681044
12850067,1.544028
12897801,3.167063
12941783,1.584312
12984492,1.669764
13029772,1.788199
13076464,1.779336
13123030,1.818814
13167142,1.66493
13209469,1.595592
13254875,1.581895
13300581,1.591563
13348588,1.589952
13400796,1.602037
13492748,1.846207
13538589,1.536777
13586113,1.776919
13637297,1.387677
13685193,1.682655
13730851,1.749526
13775866,1.851847
13824780,1.87929
13870442,1.657679
13917994,1.580284
13964630,1.614122
14009301,1.639098
14057727,1.587535
14104770,1.606871
14153470,1.615734
14200699,1.828483
14291656,1.566587
14340986,1.082275
14383782,1.628624
14426306,1.708437
14474345,1.807535
14522464,1.818814
14567110,1.658485
14619184,1.551279
14666872,1.603648
14714968,1.550474
14762687,1.549668
14809538,1.541611
14855699,1.547251
14903302,1.743886
14952559,1.52872
14998115,1.458627
15087954,1.646349
15135027,1.692323
15182185,1.812369
15229801,1.828483
15282312,1.672181
15331323,1.588341
15380619,1.611705
15435179,1.615734
15485548,1.602843
15535671,1.586729
15585270,1.637487
15632366,1.853458
15679374,1.535166
15726593,1.757583
15777301,1.233742
15828639,1.680238
15923934,1.832511
15973830,1.797061
16020556,1.577061
16073387,1.579478
16126159,1.631847
16178704,1.588341
16230515,1.589146
16280954,1.56417
16329414,1.757583
16381965,1.494076
16435314,1.51019
16489293,1.241044
16543923,1.66493
16594776,1.763223
16644044,1.845402
16692805,1.775308
16786841,1.583507
16844421,1.626207
16894769,1.581895
16946342,1.608482
17004179,1.593175
17058436,1.848624
17112323,1.543223
17161785,1.903461
17212561,1.470712
17264053,1.673793
17314447,1.752749
17370537,1.859954
17422897,1.725356
17476484,1.53436
17529459,1.589146
17582163,1.602037
17678391,1.562559
17731666,1.581895
17783444,1.812369
17835292,1.519052
17887069,1.709242
17940485,1.38526
17996676,1.633458
18050644,1.75436
18102576,1.780948
18155159,1.677821
18208672,1.552085
18260086,1.587535
18314572,1.585118
18367285,1.570616
18421826,1.560142
18476553,1.708437
18569557,1.54564
18625555,3.13967
18678859,1.590758
18736436,1.71891
18794888,1.808341
18853471,1.767251
18907138,1.619762
18964654,1.644738
19022439,1.642321
19074617,1.602843
19129734,1.614122
19184952,1.796255
19239206,1.52872
19293929,1.507773
19349860,0.9605676
19401879,1.621373
19499926,1.784976
19551846,1.773697
19606168,1.560142
19665737,1.585118
19723247,1.593175
19778380,1.556113
19835694,1.551279
19892992,1.715688
19946277,1.553697
20005121,1.485214
20061669,0.9517052
20120983,1.647155
20180026,1.744692
20235933,1.831705
20295636,1.619762
20352593,1.564976
20449146,1.624596
20508214,1.606065
20566593,1.603648
20623998,1.840568
20680643,1.52872
20735975,2.518343
20790223,1.590758
20848869,1.714076
20905779,1.808341
20995692,1.69474
21034623,1.57545
21069387,1.608482
21104113,1.635875
21138770,1.601231
21176992,1.584312
21215715,1.586729
21298044,1.73583
21334160,1.747109
21370349,1.556919
21405420,1.540806
21439774,3.162229
21479655,1.458627
21519296,1.635875
21556859,1.738247
21595708,1.826066
21632797,1.835733
21672801,1.78981
21709488,1.652845
21748136,1.628624
21787449,1.647155
21826110,1.635875
21864838,1.625402
21948438,1.60526
21987286,1.78417
22024786,1.807535
22067158,1.542417
22109700,1.500522
22150145,1.359478
22189928,1.593175
22226194,1.665736
22265956,1.745498
22305480,1.809146
22348296,1.785782
22394503,1.594786
22439569,1.524692
22479095,1.552085
22517933,1.584312
22564720,1.568199
22651661,1.554502
22691113,1.652845
22729880,1.789004
22771665,1.498911
22812111,1.428766
22854358,2.206445
22899639,1.585118
22939023,1.660902
22980771,1.789004
23021807,1.833316
23065500,1.797061
23105171,1.618956
23147975,1.562559
23192186,1.594786
23229627,1.63507
23267089,1.609288
23352439,1.583507
23396101,1.607677
23437213,1.801089
23484085,1.52872
23526741,1.483603
23568567,1.523081
23611622,1.582701
23652253,1.658485
23694140,1.776114
23737314,1.793838
23780040,1.782559
23822684,1.625402
23864983,1.637487
23906866,1.651234
23949056,1.622179
23989492,1.618956
24080079,1.631041
24124412,1.82526
24168356,1.560948
24217761,1.473129
24263059,1.639904
24307765,1.606065
24351933,1.693129
24393301,1.774502
24435793,1.798673
24480387,1.769668
24525365,1.631041
24570166,1.606871
24615553,1.632653
24660329,1.621373
24702169,1.602843
24749731,1.622179
24840589,1.587535
24885177,1.541611
24931854,3.17512
24976939,1.606871
25020785,1.658485
25067143,1.736635
25115244,1.775308
25162625,1.767251
25212423,1.569004
25259124,1.568199
25304659,1.618151
25348396,1.614122
25393359,1.589952
25444528,1.589146
25490544,1.774502
25538027,1.568199
25631193,3.166258
25682159,1.608482
25730572,1.689906
25775599,1.770474
25822636,1.830899
25870724,1.727773
25917330,1.554502
25965989,1.585924
26013168,1.581895
26061256,1.584312
26108344,1.580284
26156385,1.536777
26204365,1.753555
26249886,1.510996
26295403,1.512607
26342149,3.111472
26431704,1.702797
26477444,1.744692
26525889,1.827677
26574533,1.717299
26620537,1.589952
26667969,1.618956
26714600,1.639904
26761860,1.630236
26811754,1.614122
26860412,1.687489
26910920,1.693934
26961542,1.568199
27007977,3.160618
27058795,1.60526
27105005,1.685072
27154770,1.793838
27251088,1.742275
27303275,1.644738
27352805,1.653651
27407052,1.654456
27458698,1.606065
27505580,1.614928
27554648,1.851041
27604148,1.554502
27654789,1.990474
27703385,1.434406
27754343,1.633458
27801758,1.757583
27852418,1.812369
27900188,1.772085
27948390,1.612511
28001692,1.610094
28097572,1.583507
28149201,1.557725
28202833,1.747915
28253962,1.531138
28301260,1.526304
28353983,1.500522
28406715,1.619762
28459877,1.419098
28512377,1.743081
28562044,1.845402
28616684,1.608482
28668723,1.593175
28716752,1.625402
28770547,1.589146
28823034,1.627013
28873951,1.739052
28969948,2.823745
29022688,1.643932
29072834,1.63507
29127203,1.789004
29178683,1.803506
29230447,1.660902
29286074,1.589146
29338361,1.638292
29388967,1.637487
29439476,1.632653
29493371,1.751138
29545872,1.593175
29601074,3.158201
29653663,1.567393
29706466,1.695546
29759222,1.762417
29853341,1.602843
29910017,1.565782
29967891,1.620568
30020991,1.609288
30075662,1.679432
30125834,1.536777
30180905,1.495688
30233431,2.054928
30286949,1.589952
30342040,1.699574
30396589,1.785782
30452550,1.709242
30509971,1.536777
30563489,1.641515
30616713,1.606871
30673995,1.563365
30773671,1.482797
30829140,1.481186
30883135,1.286967
30935339,1.588341
30992183,1.72455
31048573,1.806729
31106373,1.720522
31170181,1.550474
31230935,1.577867
31286594,1.593175
31345641,1.588341
31410136,1.743886
31468535,1.500522
31523763,2.033175
31579456,1.618151
31639200,1.697157
31737846,1.812369
31794315,1.618151
31854297,1.562559
31909632,1.639904
31969975,1.593175
32029030,1.586729
32088493,1.66493
32144847,1.598814
32202246,1.538389
32263283,0.964596
32319407,1.645544
32375209,1.734219
32434775,1.805118
32525830,1.576255
32568687,1.590758
32605941,1.621373
32685057,1.606065
32723838,1.603648
32760123,1.602843
32796062,1.610899
32832428,1.770474
32871555,1.713271
32909136,1.560142
32946237,1.479574
32983570,2.620664
33020566,1.642321
33056859,1.677821
33099208,1.760806
33136204,1.793838
33175596,1.800284
33218694,1.705214
33259859,1.584312
33339894,1.658485
33377271,1.597203
33413359,1.562559
33451618,1.554502
33489403,1.571421
33529566,1.580284
33572019,1.741469
33611281,1.497299
33652558,1.483603
33692377,3.159007
33735881,1.436017
33779106,1.642321
33818582,1.699574
33860262,1.774502
33898739,1.776919
33938261,1.714076
34025857,1.645544
34068723,1.624596
34112174,1.607677
34157463,1.612511
34196140,1.612511
34234806,1.740664
34273362,1.764834
34313379,1.52872
34358315,1.715688
34397598,1.2491
34439658,1.615734
34485965,1.706825
34530633,1.776114
34572459,1.790616
34612322,1.736635
34652597,1.577867
34737942,1.619762
34779318,1.626207
34823945,1.600426
34864301,1.598814
34907163,1.589146
34952337,1.758389
34995373,1.503745
35037883,1.516635
35079304,3.173509
35120546,1.610094
35162156,1.646349
35205067,1.706825
35245714,1.792227
35287872,1.766445
35331488,1.618956
35372179,1.542417
35455799,1.581895
35498759,1.590758
35540855,1.592369
35584723,1.585924
35629687,1.596397
35674978,1.837345
35718813,1.544834
35760140,1.485214
35805661,2.028341
35848587,1.598814
35895642,1.687489
35945466,1.782559
35991309,1.807535
36035724,1.73019
36083770,1.610094
36129041,1.59398
36212193,1.586729
36256926,1.607677
36302641,1.614122
36345388,1.614122
36389892,1.770474
36435309,1.521469
36479731,1.561753
36526592,2.860806
36571050,1.59962
36614888,1.683461
36662153,1.785782
36709552,1.800284
36755042,1.732607
36800940,1.572227
36847973,1.557725
36890614,1.566587
36980620,1.577061
37025999,1.561753
37071458,1.577867
37116496,1.769668
37161969,1.525498
37210229,2.08076
37255294,1.214406
37298149,1.633458
37345798,1.696352
37394168,1.770474
37442424,1.76564
37489207,1.583507
37536651,1.567393
37579627,1.632653
37628004,1.589952
37674526,1.596397
37764097,1.711659
37814405,1.639098
37859983,1.57545
37905130,3.070332
37950543,1.360284
37998299,1.668153
38045641,1.760806
38095165,1.76
38142556,1.727773
38190220,1.567393
38237678,1.601231
38285494,1.613317
38338081,1.640709
38389354,1.603648
38437424,1.787393
38485790,1.601231
38575968,1.290996
38625212,1.677821
38670712,1.743886
38719011,1.805923
38769623,1.755972
38817579,1.647155
38870570,1.627819
38922519,1.697157
38970511,1.665736
39018386,1.75436
39068035,1.585924
39121447,1.573033
39172675,1.95019
39222963,1.616539
39271839,1.603648
39323602,1.723745
39416203,1.583507
39469333,1.529526
39526201,1.631041
39582707,1.680238
39633185,1.735024
39686437,1.627013
39745313,1.595592
39798710,1.679432
39851070,1.600426
39901785,1.705214
39956471,1.738247
40007422,1.687489
40060310,1.602843
40115105,1.616539
40165133,1.62943
40218952,1.606871
40315634,1.637487
40371055,1.639904
40423753,1.544834
40474910,3.161424
40528840,1.56981
40579637,1.704408
40630279,1.75436
40683635,1.772891
40735262,1.563365
40793571,1.461044
40843969,1.506967
40897393,1.521469
40950485,1.485214
41002550,1.553697
41053427,1.774502
41108382,1.47474
41205960,1.145924
41258533,1.647155
41312828,1.729384
41365826,1.829288
41417593,1.618151
41468631,1.458627
41525867,1.506967
41577820,1.554502
41632756,1.530332
41692484,1.560948
41748373,1.56981
41804136,1.615734
41858848,1.625402
41910653,1.711659
41963816,1.627819
42017172,1.602843
42119519,1.631847
42173718,1.722939
42231188,1.837345
42285318,1.814786
42339563,1.576255
42397784,1.562559
42464992,1.573838
42521726,1.579478
42579205,1.570616
42634937,1.555308
42689350,1.568199
42746431,1.615734
42802784,1.603648
42859265,1.541611
42918380,1.216823
42972906,1.67057
43067757,1.841373
43121945,1.791421
43177622,1.592369
43238268,1.614928
43293210,1.610094
43351216,1.570616
43414523,1.583507
43475840,1.602843
43534708,1.592369
43592076,1.703603
43648040,1.544834
43705133,1.59962
43762367,1.498105
43822569,1.710854
43880353,1.818009
43940247,1.805923
44046251,1.526304
44136791,1.588341
44173467,1.539194
44209318,1.519858
44245524,1.543223
44280527,1.561753
44316625,1.573838
44354722,1.583507
44392995,1.657679
44427511,1.574644
44462571,1.493271
44500010,1.551279
44536870,1.542417
44576330,1.557725
44614411,1.606065
44652693,1.674598
44732689,1.76
44770464,1.655262
44810564,1.547251
44848091,1.543223
44888543,1.582701
44928834,1.574644
44970453,1.579478
45009405,1.571421
45053077,1.592369
45094222,1.626207
45132363,1.779336
45171014,1.708437
45209578,1.562559
45247189,1.573838
45287699,1.442463
45327829,1.638292
45409137,1.805923
45449245,1.86076
45486545,1.845402
45524042,1.699574
45565698,1.570616
45608607,1.581895
45647265,1.598814
45687752,1.580284
45729512,1.548862
45765834,1.556113
45808073,1.576255
45848829,1.621373
45888356,1.859954
45929320,1.539194
45969512,1.489242
46011264,2.968011
46093181,1.701991
46131653,1.743081
46173477,1.845402
46216117,1.827677
46259054,1.660902
46300436,1.569004
46342538,1.59962
46380196,1.615734
46422653,1.594786
46464853,1.579478
46505023,1.573838
46550213,1.583507
46589351,1.651234
46629261,1.859954
46669214,1.54
46711753,1.465072
46800222,1.639904
46844741,1.703603
46886992,1.808341
46929075,1.830899
46968507,1.793838
47010824,1.616539
47057138,1.577867
47101909,1.627013
47144645,1.612511
47187631,1.600426
47228376,1.593175
47275880,1.638292
47316962,1.627819
47359942,1.859954
47405791,1.548057
47450580,1.639098
47541150,1.695546
47588855,1.760806
47630389,1.840568
47673177,1.865594
47717588,1.815592
47766651,1.625402
47809906,1.663319
47854918,1.686683
47896495,1.687489
47941511,1.660902
47986374,1.63507
48035712,1.905878
48089086,1.606065
48140066,1.627819
48185212,1.461044
48232463,1.641515
48330145,1.805118
48377972,1.777725
48425092,1.613317
48470062,1.547251
48517893,1.620568
48563401,1.589952
48609549,1.560142
48657601,1.586729
48702417,1.592369
48750858,1.809952
48798134,1.527109
48846804,1.60526
48892641,1.011325
48939287,1.609288
48987561,1.716493
49032749,1.771279
49120270,1.573033
49167876,1.444124
49215012,1.511801
49266263,1.502133
49312305,1.482797
49358815,1.516635
49407905,1.500522
49453772,1.731801
49500827,1.490854
49547465,1.438434
49595336,1.377203
49641783,1.589952
49689303,1.673793
49737937,1.78417
49785261,1.793838
49831038,1.656873
49928635,1.574644
49976856,1.631847
50027556,1.584312
50078844,1.622179
50127938,1.591563
50177965,1.821231
50227268,1.552891
50273826,1.573838
50322387,3.005878
50372100,1.616539
50423707,1.731801
50475058,1.827677
50527064,1.829288
50576909,1.647155
50623627,1.573033
50675239,1.618956
50773118,1.606871
50823032,1.622179
50872678,1.609288
50923061,1.768057
50973149,1.696352
51025813,1.556919
51076877,3.163035
51127144,1.614122
51181836,1.73583
51230059,1.809952
51279891,1.841373
51329015,1.642321
51378123,1.602843
51433354,1.637487
51483012,1.615734
51535514,1.613317
51637580,1.639098
51691366,1.788199
51746339,1.532749
51798160,1.619762
51850534,1.264408
51902313,1.657679
51954129,1.741469
52008086,1.78417
52060526,1.751138
52113687,1.560142
52167565,1.600426
52218901,1.614928
52272031,1.569004
52323656,1.585118
52375523,1.609288
52427062,1.786587
52522777,1.560142
52577601,1.510996
52631445,1.624596
52685146,1.73583
52736643,1.867205
52790356,1.799478
52841941,1.600426
52898315,1.618956
52951836,1.60526
53007145,1.577061
53061369,1.60526
53113701,1.624596
53169796,1.789004
53222005,1.570616
53278299,1.674598
53339295,1.631041
53439739,1.809146
53491768,1.816397
53549392,1.674598
53605889,1.559336
53659646,1.627819
53716167,1.596397
53772863,1.560142
53826757,1.562559
53882639,1.626207
53936859,1.70602
53988734,1.503745
54046238,3.007489
54100755,1.611705
54154914,1.711659
54213350,1.774502
54272102,1.740664
54369465,1.543223
54425110,1.571421
54483633,1.557725
54534904,1.590758
54592374,1.59398
54650137,1.777725
54706708,1.512607
54764324,2.519954
54819943,1.602843
54878427,1.672987
54933878,1.751943
54988001,1.751138
55045727,1.557725
55105244,1.546445
55163747,1.577867
55221686,1.560142
55323603,1.583507
55376851,1.740664
55434141,1.516635
55491858,2.062179
55548241,1.544834
55638521,1.73583
55672129,1.777725
55706566,1.772891
55744486,1.706825
55783361,1.559336
55820731,1.568199
55859091,1.585924
55895146,1.581895
55931927,1.563365
55967027,1.560948
56007673,1.52872
56092175,1.707631
56128881,1.769668
56167387,1.502133
56204270,1.477963
56247597,3.042939
56283164,1.582701
56321805,1.626207
56361706,1.726162
56401231,1.79545
56442022,1.805923
56484471,1.681044
56522992,1.552085
56557656,1.56417
56598785,1.596397
56642399,1.585924
56682458,1.57545
56762455,1.564976
56800537,1.594786
56842779,1.770474
56883289,1.663319
56927183,1.502133
56973031,2.437725
57017280,1.32564
57057941,1.606065
57101351,1.675404
57149693,1.730996
57192153,1.76
57233764,1.641515
57273937,1.53436
57316318,1.56417
57356447,1.585118
57398068,1.596397
57482168,1.548057
57521418,1.577867
57564673,1.619762
57604862,1.801895
57648249,1.502939
57690041,1.431183
57731432,1.841373
57775312,1.602843
57815487,1.661707
57855194,1.749526
57897388,1.805923
57939055,1.79545
57984234,1.601231
58024183,1.56981
58066867,1.590758
58110527,1.598814
58196089,1.627819
58236144,1.622985
58279184,1.653651
58322824,1.880902
58363839,1.560142
58405892,1.548862
58450459,3.147727
58492404,1.62943
58532578,1.689906
58578626,1.839762
58621973,1.88493
58666844,1.838956
58714736,1.631041
58759654,1.603648
58805450,1.610094
58849521,1.622179
58932873,1.622985
58974343,1.618151
59017086,1.78981
59064322,1.711659
59111524,1.552085
59156644,3.15659
59201289,1.556113
59243277,1.63507
59290420,1.728579
59339467,1.827677
59382831,1.818814
59430368,1.588341
59475927,1.555308
59518878,1.597203
59566121,1.56981
59612493,1.587535
59703130,1.586729
59752291,1.728579
59797568,1.740664
59841970,1.563365
59882924,1.833316
59929141,1.150758
59980938,1.653651
60024751,1.710048
60070779,1.797061
60122135,1.799478
60171004,1.573838
60219043,1.581895
60262949,1.570616
60308229,1.577867
60352899,1.570616
60397780,1.577867
60488823,1.758389
60535921,1.548057
60583637,1.505356
60629780,2.718201
60676788,1.615734
60723875,1.684266
60768453,1.779336
60813394,1.837345
60858645,1.753555
60905162,1.542417
60955560,1.589146
61002986,1.598814
61049693,1.548862
61096588,1.592369
61144721,1.548057
61191442,1.760806
61286850,1.519052
61335150,3.064692
61384851,1.601231
61433323,1.730996
61479293,1.806729
61530753,1.829288
61578446,1.685072
61629205,1.541611
61684049,1.588341
61735779,1.600426
61784922,1.56417
61837997,1.596397
61889035,1.750332
61936629,1.616539
61986357,1.523886
62036074,3.172703
62129054,1.657679
62178112,1.807535
62225921,1.792227
62272829,1.710854
62324698,1.538389
62372013,1.56981
62419758,1.579478
62471716,1.540806
62524007,1.54564
62575131,1.576255
62627265,1.743886
62679085,1.52872
62726812,2.708533
62778896,1.559336
62829818,1.620568
62879905,1.710048
62980579,1.661707
63033376,1.550474
63082480,1.579478
63131192,1.584312
63183145,1.56981
63234669,1.595592
63286544,1.713271
63337222,1.503745
63389612,1.436017
63441067,1.039574
63494933,1.625402
63547226,1.698769
63598086,1.789004
63647482,1.739052
63696925,1.589146
63745501,1.54564
63839192,1.610094
63893215,1.597203
63947569,1.591563
63998039,1.867205
64049712,1.506162
64099939,2.216114
64150647,1.544834
64206765,1.657679
64263979,1.757583
64316331,1.832511
64370339,1.626207
64420684,1.547251
64478009,1.614122
64528818,1.588341
64584147,1.548057
64639648,1.573838
64736344,1.527915
64791586,1.444124
64849284,1.097583
64902718,1.612511
64957181,1.727773
65012549,1.803506
65070494,1.655262
65124696,1.536777
65179532,1.622179
65232621,1.607677
65288823,1.577061
65343548,1.577867
65402662,1.831705
65465268,1.494076
65526574,3.033271
65583837,1.564976
65683654,1.740664
65746345,1.741469
65803507,1.557725
65860783,1.597203
65914875,1.627013
65973034,1.585924
66029401,1.590758
66086738,1.723745
66146068,1.561753
66202017,1.540806
66259049,1.055688
66317820,1.712465
66376767,1.86076
66431801,1.918769
66487760,1.73583
66547376,1.604454
66644210,1.652039
66697083,1.679432
66753962,1.677821
66809512,1.674598
66871231,1.805118
66928392,1.573033
66984984,2.910002
67042682,1.677821
67100611,1.792227
67156461,1.897015
67244981,1.579478
67283446,1.547251
67321477,1.590758
67360269,1.610899
67396624,1.619762
67433024,1.618956
67514699,1.611705
67552552,1.595592
67589476,1.637487
67632928,1.838151
67672037,1.552891
67709886,1.487631
67748066,3.154978
67783182,1.585924
67822327,1.622179
67861108,1.711659
67901571,1.790616
67941961,1.809146
67982919,1.698769
68023340,1.511801
68059899,1.53436
68102477,1.552085
68188149,1.556113
68225599,1.555308
68266309,1.566587
68306897,1.561753
68347553,1.583507
68386322,1.742275
68430321,1.531138
68471690,1.571421
68513432,3.165452
68557263,1.589146
68594769,1.660902
68633371,1.728579
68673742,1.793838
68712029,1.788199
68757569,1.723745
68795823,1.595592
68879566,1.602037
68926176,1.580284
68971024,1.598814
69014779,1.622179
69054217,1.613317
69093874,1.642321
69134723,1.841373
69174143,1.564976
69219159,1.523081
69259184,3.125168
69301379,1.625402
69344319,1.639098
69385755,1.773697
69427581,1.851041
69467695,1.841373
69507826,1.684266
69592819,1.615734
69632088,1.63507
69674526,1.625402
69716416,1.624596
69757627,1.60526
69797263,1.634264
69839742,1.848624
69881128,1.54564
69925563,1.531138
69969496,3.157395
70012573,1.603648
70055641,1.682655
70096173,1.773697
70141994,1.863177
70184135,1.824454
70230124,1.606065
70322159,1.576255
70367480,1.601231
70409569,1.579478
70455952,1.580284
70500585,1.579478
70543717,1.739858
70587934,1.584312
70631418,1.521469
70673403,2.71659
70718441,1.426349
70760646,1.620568
70802358,1.697963
70848471,1.776114
70890031,1.793033
70932034,1.667347
70979652,1.527915
71069696,1.573838
71113820,1.586729
71161443,1.583507
71207680,1.56417
71249994,1.710854
71296606,1.53436
71343599,1.520664
71389007,2.99621
71436806,1.604454
71483933,1.671376
71527361,1.771279
71570160,1.809146
71617829,1.793033
71665277,1.584312
71711589,1.616539
71758737,1.634264
71847003,1.577867
71891156,1.579478
71939535,1.799478
71986321,1.514218
72030523,1.523081
72074700,3.170286
72118583,1.628624
72161768,1.626207
72209028,1.722133
72257387,1.807535
72305726,1.736635
72351835,1.558531
72399515,1.556919
72444523,1.564976
72491562,1.592369
72541133,1.544834
72634819,1.755166
72681048,1.556919
72728495,1.51019
72774493,3.167063
72825614,1.548862
72870765,1.655262
72919121,1.739052
72967868,1.741469
73015684,1.734219
73065420,1.537583
73116661,1.639904
73164469,1.594786
73210151,1.594786
73260727,1.60526
73313295,1.76
73360919,1.596397
73452567,3.170286
73498626,1.53436
73547954,1.652845
73598048,1.783365
73650752,1.831705
73708525,1.660902
73761603,1.544028
73812394,1.595592
73864594,1.585924
73922908,1.573838
73975311,1.602843
74028211,1.858343
74078064,1.548057
74132930,2.021895
74184472,1.52872
74234868,1.66493
74330660,1.834928
74379869,1.75436
74432858,1.572227
74485491,1.573838
74537469,1.631847
74589152,1.577867
74640240,1.62379
74694265,1.758389
74744520,1.543223
74794392,1.491659
74848021,2.95512
74898263,1.59398
74954454,1.610899
75004528,1.755166
75056754,1.821231
75109799,1.44493
75201858,1.535972
75255301,1.500522
75308877,1.626207
75359812,1.590758
75411215,1.555308
75466983,1.410236
75518714,2.819716
75570637,1.527915
75627687,1.722133
75681001,1.672987
75732821,1.951801
75791753,1.601231
75845604,1.516635
75901415,1.697963
75953444,1.569004
76004199,1.635875
76100359,1.525498
76152695,1.496493
76209767,1.555308
76264018,1.796255
76319154,2.060568
76374989,1.781753
76427183,1.760806
76484271,1.503745
76542269,1.574644
76597021,1.589146
76655540,1.768862
76710207,1.560142
76764852,1.743886
76819193,1.682655
76877381,3.171092
76934089,1.489242
77031928,1.67057
77093322,1.780142
77148760,1.394122
77204106,1.51019
77256073,1.551279
77312187,1.666541
77370871,1.555308
77424831,1.548057
77482926,1.668153
77543861,1.261991
77602216,2.204834
77661458,1.729384
77716126,1.973555
77771023,1.901044
77827326,1.685878
77881860,1.560948
77985474,1.827677
78041667,1.680238
78099901,1.683461
78158382,2.149242
78215395,1.687489
78273950,2.523983
78329637,1.562559
78385570,1.723745
78440503,1.887347
78496075,1.842179
78556207,1.48038
78611511,1.584312
78669169,1.614122
78723617,1.454598
78781011,1.34417
78816824,1.619762
78899565,1.530332
78938282,1.502133
78975766,1.982417
79013203,0.9766811
79048085,1.587535
79088588,1.615734
79125005,1.672181
79164574,1.863177
79207096,1.608482
79247911,1.738247
79285814,1.323223
79325392,1.524692
79364580,1.573033
79401902,1.54564
79441996,1.710854
79479966,1.626207
79556934,1.743081
79596351,1.770474
79635789,1.429572
79670968,1.619762
79711652,3.167869
79746833,1.137061
79784524,1.627013
79826070,1.614928
79867115,1.768862
79905555,1.732607
79947731,1.757583
79990910,1.571421
80027741,1.556919
80067550,1.589952
80107532,1.625402
80147572,1.481186
80233840,1.506967
80276776,1.674598
80316218,1.830899
80353712,1.511801
80394851,1.502939
80435656,2.680284
80475163,1.236159
80516448,1.547251
80557472,1.712465
80594306,1.776919
80636068,1.838956
80677260,1.940522
80716993,1.569004
80755669,1.516635
80793158,1.547251
80832663,1.590758
80919268,1.612511
80961035,1.837345
81003021,1.414264
81042677,1.793838
81083613,1.540806
81121295,1.489242
81161360,2.486116
81204267,1.340948
81249595,1.52872
81291091,1.656873
81333207,1.729384
81374477,1.792227
81418706,1.608482
81458574,1.544028
81502965,1.667347
81547366,1.650428
81631149,1.513413
81675348,1.618956
81721866,1.760806
81764057,1.763223
81805482,1.402179
81849071,1.492465
81896143,3.174314
81939992,1.711659
81983896,1.716493
82026201,1.813175
82071408,1.853458
82116193,1.933271
82163096,1.672181
82212508,1.592369
82262355,1.664124
82307755,1.677015
82395725,1.581895
82445752,1.602843
82492770,1.905072
82538725,1.558531
82583161,1.613317
82629982,2.453033
82674750,1.748721
82719608,1.711659
82766711,1.652039
82811889,1.751943
82859374,1.440046
82906753,1.544834
82953258,1.613317
82997719,1.589952
83043534,1.489242
83090505,1.751138
83176289,1.690712
83218005,1.679432
83264691,1.658485
83309608,2.778627
83359210,1.544834
83405668,1.454598
83452312,1.714076
83499910,1.741469
83544327,1.785782
83590969,1.395734
83638639,1.595592
83684499,1.503745
83733060,1.677015
83781651,1.541611
83826431,1.566587
83871549,1.685878
83964069,1.481991
84010935,3.071137
84057959,1.749526
84111504,1.657679
84161037,1.822843
84208870,1.818009
84257320,1.71891
84302583,1.51019
84350199,1.535972
84395346,1.667347
84445968,1.59962
84496057,1.563365
84545522,1.543223
84595756,1.624596
84641548,1.542417
84693374,2.843887
84791162,1.740664
84839946,1.665736
84889783,1.780142
84938182,1.900238
84989082,1.618956
85037737,1.427155
85090351,1.573838
85142573,1.561753
85192821,1.609288
85248596,1.588341
85298346,1.932465
85348023,1.476351
85396188,2.420806
85445554,1.502939
85499822,1.669764
85549720,1.610094
85645527,1.690712
85700268,1.601231
85752194,1.708437
85803341,1.682655
85851771,1.62379
85901408,1.644738
85953500,1.564976
86004466,1.769668
86056480,1.621373
86107531,1.562559
86161107,2.179858
86215384,1.656873
86266908,1.690712
86320187,1.912323
86369535,1.838151
86418959,1.485214
86512224,1.828483
86564441,1.789004
86619158,1.847819
86668843,1.719716
86720202,1.892987
86771289,1.70602
86821172,1.532749
86876117,2.99621
86929763,1.645544
86982604,1.710048
87035755,1.718105
87085244,1.762417
87141091,1.419904
87192057,1.532749
87246251,1.523886
87304388,1.665736
87400615,1.511801
87453836,1.770474
87511176,1.491659
87566586,1.469906
87619411,1.029856
87671702,1.608482
87727266,1.693129
87779252,1.759194
87832583,1.721328
87887466,1.473129
87939198,1.431183
87995032,1.453793
88046543,1.440851
88098684,1.511801
88157137,1.607677
88213864,1.729384
88310878,1.816397
88366817,1.382843
88422890,1.571421
88474907,1.767251
88530340,1.822843
88585861,1.633458
88640006,1.579478
88698062,1.667347
88755223,1.632653
88809416,1.642321
88862388,1.653651
88919918,1.895404
88978426,1.598814
89035906,2.108153
89090989,1.696352
89146073,1.712465
89244627,1.919574
89302895,1.681044
89359406,1.584312
89416084,1.631041
89471990,1.621373
89525770,1.597203
89579843,1.625402
89638614,1.802701
89695510,1.590758
89753971,1.505356
89810163,1.018576
89867355,1.642321
89921777,1.802701
89976454,1.877679
90037551,1.689101
90097223,1.574644
90195992,1.598009
90253730,1.558531
90345313,1.548057
90379673,1.755166
90416936,1.673793
90455740,1.564976
90493905,1.563365
90533588,1.628624
90574673,1.622179
90612039,1.692323
90647905,1.697963
90685223,1.82526
90727294,1.809146
90766262,1.683461
90802616,1.559336
90837406,1.601231
90917676,1.626207
90958038,1.603648
90998613,1.585924
91041107,1.589952
91084302,1.633458
91123564,1.870428
91162482,1.550474
91209109,1.483603
91249085,2.642417
91290619,1.609288
91327538,1.657679
91368538,1.749526
91409053,1.842179
91447889,1.848624
91489411,1.663319
91527425,1.573033
91610954,1.921186
91651562,1.574644
91692766,1.81398
91731028,1.988862
91770242,1.987251
91812953,2.038009
91849994,2.187915
91887731,1.677015
91928569,1.673793
91967590,3.168675
92011481,1.756777
92051103,1.614122
92091976,1.699574
92134256,1.756777
92173043,1.876873
92214021,1.706825
92298395,1.428766
92337585,1.51019
92379483,1.565782
92421071,1.273271
92458625,1.496493
92496241,1.633458
92540768,1.594786
92582522,1.4691
92623536,1.30872
92669583,2.21128
92711900,0.9823209
92754024,1.608482
92795212,1.717299
92836584,2.062179
92876833,1.840568
92918129,1.699574
93006504,1.529526
93051112,1.476351
93094964,1.564976
93138172,1.557725
93180040,1.538389
93226783,1.350616
93275441,1.699574
93319867,1.479574
93362349,1.610094
93405240,1.111279
93447911,1.711659
93491302,1.647155
93538401,1.921991
93585096,1.741469
93631152,1.714882
93681258,1.593175
93768403,1.660902
