205423567,1.609288
205428348,1.609288
205433226,1.618151
205438130,1.610899
205443193,1.606871
205448090,1.610094
205453046,1.611705
205509624,1.76
205514754,1.842179
205520024,1.858343
205525355,1.835733
205530737,1.803506
205536142,1.729384
205541788,1.643127
205547561,1.564976
205553252,1.498911
205559102,1.471517
205611941,1.236965
205617925,1.332891
205623890,1.690712
205629985,2.44417
205636082,3.236351
205642253,3.236351
205648474,3.162229
205699050,1.477963
205705345,1.520664
205711949,1.541611
205718534,1.533555
205765515,1.627013
205806301,1.646349
205841911,1.595592
205880583,1.633458
205916266,1.621373
206002894,1.672987
206043368,1.608482
206080544,1.598009
206117795,1.627819
206155201,1.62943
206194403,1.684266
206229593,1.8664
206270442,1.556113
206306099,1.574644
206342840,3.230712
206381815,1.115308
206421872,1.596397
206458718,1.632653
206500157,1.710854
206541867,1.661707
206626587,1.715688
206666922,1.761611
206703950,1.701991
206744450,1.685072
206783410,1.662513
206821420,1.647961
206860781,1.644738
206900558,1.772891
206940241,1.723745
206978996,1.535166
207019058,1.614122
207062053,0.7872968
207104106,1.560948
207146210,1.627013
207184524,1.681044
207269862,1.613317
207313166,1.639904
207351918,1.640709
207392404,1.684266
207433933,1.657679
207472414,1.660902
207511510,1.660096
207551555,1.689101
207592533,1.904266
207631074,1.518247
207672809,1.525498
207712623,3.231518
207753711,1.45057
207796792,1.577061
207838185,1.631847
207923773,1.585924
207963717,1.650428
208003814,1.644738
208045360,1.63507
208090410,1.652845
208133988,1.606871
208180398,1.609288
208223343,1.589146
208265721,1.848624
208311307,1.505356
208356732,1.422321
208401274,3.041327
208444526,1.465878
208488112,1.594786
208530784,1.637487
208622387,1.65929
208667844,1.686683
208716028,1.711659
208770213,1.696352
208819234,1.656873
208863047,1.631847
208910216,1.602843
208956779,1.93166
209006637,1.57545
209051941,1.253129
209097077,1.042797
209143110,1.573033
209187686,1.644738
209233279,1.718105
209278453,1.619762
209372081,1.703603
209418935,1.699574
209467192,1.638292
209512376,1.596397
209560441,1.614122
209604404,1.711659
209650610,1.719716
209694734,1.583507
209741636,2.804408
209790623,1.307109
209837537,1.606871
209884510,1.697963
209932852,1.652845
209981211,1.667347
210032947,1.655262
210129874,1.653651
210175477,1.665736
210224293,1.618956
210272074,1.735024
210315805,1.830899
210362140,1.549668
210408743,1.737441
210455380,0.9782926
210501828,1.549668
210546767,1.667347
210592671,1.687489
210639646,1.580284
210685162,1.661707
210730771,1.689906
210777964,1.660902
210873536,1.664124
210919143,1.666541
210964960,1.721328
211015727,1.511801
211068359,1.400568
211120473,1.086303
211168734,1.525498
211220397,1.600426
211272262,1.645544
211323353,1.631847
211370129,1.657679
211418403,1.687489
211465017,1.658485
211516667,1.642321
211564926,1.626207
211663228,1.910712
211711263,1.53436
211760016,1.577061
211810662,1.042797
211856966,1.606871
211906872,1.633458
211954963,1.635875
212007630,1.640709
212058598,1.683461
212109593,1.70602
212160864,1.685878
212211176,1.63507
212263896,1.624596
212314821,1.776114
212364538,1.490048
212463803,1.286162
212517255,1.495688
212568538,1.614928
212619109,1.624596
212667180,1.581089
212719684,1.675404
212772574,1.714882
212823467,1.67057
212876909,1.650428
212930273,1.625402
212981290,1.713271
213030089,1.606871
213080700,1.584312
213132453,2.988153
213183290,1.551279
213285887,1.665736
213335942,1.613317
213386320,1.669764
213436185,1.685878
213489078,1.678627
213541385,1.666541
213593886,1.627013
213648247,1.652039
213698898,1.834122
213750061,1.556113
213801803,3.231518
213852225,1.493271
213906934,1.631041
213959248,1.655262
214019232,1.62379
214122857,1.660902
214173756,1.660096
214227735,1.627819
214279536,1.652845
214334625,1.67057
214391360,1.801895
214443444,1.563365
214496843,3.24038
214552416,1.494076
214606304,1.59962
214658772,1.664124
214716228,1.672987
214767931,1.702797
214821666,1.687489
214876768,1.671376
214980869,1.651234
215034797,1.820426
215092423,1.579478
215149025,1.830094
215232689,1.595592
215266974,1.633458
215303215,1.685072
215339605,1.631041
215374315,1.613317
215408173,1.668153
215444124,1.669764
215478774,1.704408
215513271,1.695546
215548348,1.658485
215585352,1.613317
215664330,1.598814
215700614,1.721328
215732578,1.813175
215766125,1.51019
215804832,1.467489
215838872,3.235546
215874904,1.179762
215912479,1.576255
215946070,1.62379
215980906,1.697157
216016136,1.697963
216055364,1.645544
216091810,1.709242
216128496,1.692323
216163353,1.703603
216247131,1.661707
216285561,1.628624
216322086,1.607677
216357575,1.641515
216394751,1.737441
216430048,1.756777
216467139,1.589146
216507189,1.364312
216547540,1.554502
216590076,1.52872
216628394,1.664124
216667576,1.721328
216708337,1.671376
216748707,1.666541
216789393,1.672181
216873505,1.710854
216913297,1.689906
216951384,1.645544
216989847,1.618151
217031280,1.595592
217073352,1.624596
217122798,1.832511
217167875,1.510996
217206868,1.274882
217249596,2.187109
217292229,1.520664
217339650,1.606871
217380945,1.651234
217420824,1.607677
217463646,1.616539
217552586,1.738247
217595406,1.710048
217638576,1.67621
217680186,1.660902
217721659,1.639098
217764428,1.63507
217804994,1.734219
217847904,1.865594
217887107,1.548057
217929060,1.318389
217968539,2.930144
218009565,1.519052
218054903,1.626207
218097230,1.644738
218138722,1.640709
218229628,1.718105
218271996,1.738247
218318882,1.715688
218362537,1.678627
218403278,1.661707
218447568,1.644738
218490637,1.628624
218530020,1.693129
218573374,1.85507
218615001,1.523081
218656964,1.316777
218698635,2.062179
218738018,1.531943
218779048,1.638292
218821320,1.696352
218907666,1.661707
218949095,1.696352
218988748,1.669764
219032902,1.697157
219075329,1.67621
219117644,1.653651
219163465,1.622179
219209990,1.643932
219259308,1.656873
219302707,1.938105
219350342,1.573033
219397609,1.315972
219443823,0.88
219486769,1.537583
219532020,1.656873
219623343,1.574644
219669967,1.66493
219713177,1.65929
219758151,1.582701
219801114,1.574644
219843913,1.617345
219889848,1.609288
219934019,1.699574
219980471,1.602843
220026163,1.715688
220074492,1.361089
220120997,1.373175
220167682,2.058956
220213814,1.574644
220258995,1.714882
220354564,1.637487
220399526,1.684266
220444828,1.562559
220494055,1.571421
220541642,1.658485
220590522,1.753555
220636262,1.769668
220682034,1.788199
220728052,2.017867
220775947,1.662513
220822074,1.50455
220870771,1.132227
220918793,1.680238
220966644,1.72455
221013199,1.747915
221107401,1.731801
221156013,1.687489
221202856,1.642321
221248718,1.56417
221293121,1.53436
221338719,1.556113
221384612,1.54564
221430753,1.797061
221480243,1.479574
221527767,1.471517
221575495,0.9404257
221621187,1.580284
221667309,1.708437
221715935,1.755166
221762166,1.710048
221858766,1.680238
221911755,1.735024
221962510,1.631041
222011250,1.640709
222062937,1.624596
222110075,1.737441
222160691,1.542417
222211822,1.426349
222259487,1.422321
222307331,1.543223
222357103,1.696352
222406969,1.72455
222454248,1.698769
222507848,1.693934
222557226,1.674598
222653332,1.650428
222703286,1.597203
222755102,1.587535
222805574,1.692323
222859959,1.569004
222913545,1.53436
222963676,2.630332
223013631,1.53436
223065812,1.611705
223116265,1.657679
223165960,1.588341
223218702,1.697963
223268736,1.672987
223320256,1.673793
223370947,1.660096
223469760,1.657679
223524527,1.638292
223574854,1.919574
223630630,1.585118
223680218,1.934882
223731585,1.289384
223784678,1.613317
223836461,1.701991
223888372,1.666541
223939173,1.687489
223990379,1.681044
224041296,1.71891
224094948,1.658485
224148702,1.609288
224200318,1.624596
224298684,1.609288
224351485,1.745498
224403925,1.584312
224457220,1.345782
224509716,0.8928908
224563274,1.607677
224618373,1.706825
224669480,1.693129
224722445,1.725356
224778585,1.682655
224834885,1.706825
224892248,1.655262
224946741,1.63507
225002328,1.62379
225059436,1.589952
225163660,1.714882
225219910,1.639098
225276787,1.50455
225334239,0.7582925
225388234,1.614122
225442779,1.661707
225502388,1.646349
225560610,1.653651
225625953,1.651234
225687330,1.690712
225742274,1.628624
225833174,1.633458
225876035,1.618151
225912184,1.610094
225946224,1.60526
226029883,1.692323
226066848,1.583507
226103077,1.341753
226141400,2.640806
226178956,1.556113
226217006,1.651234
226254859,1.681044
226290239,1.714882
226328172,1.661707
226362597,1.70602
226399706,1.718105
226436182,1.672987
226473413,1.67621
226513061,1.679432
226549459,1.642321
226636749,1.610094
226676947,1.653651
226716968,1.667347
226756719,1.653651
226796230,1.785782
226832916,1.699574
226872234,1.604454
226908364,1.440851
226944801,1.886541
226983292,1.535972
227020039,1.639098
227055330,1.716493
227091750,1.740664
227126006,1.687489
227163773,1.660096
227247766,1.59398
227284491,1.593175
227319033,1.610094
227356343,1.611705
227395340,1.59962
227432706,1.650428
227470268,1.620568
227511208,1.65929
227554265,1.682655
227596794,1.89621
227636018,1.580284
227680683,1.554502
227723768,3.225072
227765102,1.519052
227805005,1.639904
227892844,1.708437
227931375,1.665736
227973999,1.681849
228014107,1.663319
228056350,1.680238
228094875,1.717299
228133251,1.678627
228174663,1.641515
228213058,1.628624
228255973,1.636681
228296500,1.622985
228339785,1.652039
228380999,1.809146
228422619,1.586729
228461775,1.581895
228546826,1.348199
228588209,1.59398
228629873,1.664124
228670668,1.714882
228717281,1.639904
228761479,1.673793
228805599,1.651234
228846097,1.671376
228888806,1.681849
228931648,1.640709
228974612,1.627819
229015913,1.607677
229059438,1.618151
229104232,1.626207
229146989,1.715688
229237442,1.614928
229279302,1.927631
229320924,0.8703319
229364923,1.587535
229408954,1.677015
229448321,1.71891
229488914,1.635875
229528929,1.660902
229571016,1.643932
229615489,1.689101
229656277,1.690712
229699090,1.665736
229743256,1.589146
229784382,1.589146
229828828,1.602843
229915852,1.62943
229958464,1.847013
230006813,1.540806
230054400,1.592369
230096197,0.8743603
230142970,1.582701
230186887,1.683461
230233804,1.713271
230280720,1.622179
230324435,1.671376
230368113,1.638292
230410915,1.680238
230454574,1.642321
230497669,1.627013
230545624,1.628624
230640698,1.606065
230685800,1.643932
230732227,1.693934
230779039,1.54564
230824449,2.187109
230872820,1.285356
230921410,1.59962
230966599,1.675404
231011737,1.714076
231057014,1.668153
231102495,1.689906
231147437,1.682655
231193232,1.705214
231240393,1.672987
231288096,1.67057
231377883,1.671376
231423243,1.684266
231471957,1.868011
231517343,1.576255
231567309,1.616539
231610865,0.8292424
231655640,1.603648
231705182,1.696352
231750141,1.712465
231797087,1.689101
231846094,1.680238
231890699,1.652845
231937692,1.690712
231986918,1.664124
232036426,1.622985
232127600,1.584312
232174653,1.652039
232219693,1.734219
232269046,1.523081
232317423,2.368437
232365137,1.245878
232413636,1.616539
232461656,1.677821
232508101,1.660902
232558428,1.642321
232609834,1.639098
232661608,1.70602
232714253,1.714882
232764795,1.606065
232813640,1.627013
232909189,1.735024
232960990,1.531138
233012330,1.399762
233064329,0.9243122
233115380,1.555308
233166340,1.672181
233215989,1.677821
233268962,1.683461
233322924,1.677015
233383088,1.714076
233438578,1.689906
233490952,1.645544
233545223,1.606871
233603117,1.704408
233655117,1.52872
233754430,2.630332
233807172,1.572227
233858288,1.668958
233911518,1.689101
233964767,1.65929
234018396,1.66493
234072723,1.714076
234125868,1.673793
234177473,1.635875
234233049,1.66493
234284300,1.618151
234337423,1.85507
234389617,1.548862
234442870,2.263649
234499350,1.511801
234599040,1.686683
234651345,1.656873
234708242,1.696352
234763157,1.664124
234820967,1.685878
234876857,1.672987
234931468,1.627013
234985990,1.627013
235038075,1.706825
235087784,1.582701
235142200,1.532749
235193298,2.791517
235245957,1.563365
235298570,1.685072
235351351,1.691517
235452646,1.65929
235505806,1.675404
235558240,1.673793
235609897,1.686683
235660705,1.645544
235716100,1.652845
235769549,1.630236
235821238,1.892987
235878193,1.567393
235938602,3.241185
235997112,1.549668
236051605,1.639904
236112108,1.706825
236170270,1.672987
236228998,1.65929
236331707,1.668153
236387876,1.652845
236475557,1.634264
236509153,1.627013
236544553,1.675404
236579908,1.832511
236615259,1.537583
236651363,1.535972
236684648,1.81398
236722470,0.7252598
236757945,1.527915
236797449,1.608482
236833797,1.693129
236870384,1.701991
236906428,1.638292
236991457,1.646349
237029770,1.689101
237066439,1.685072
237102060,1.692323
237142553,1.636681
237182635,1.646349
237219982,1.614928
237255632,1.614122
237293165,1.647155
237330018,1.855875
237366978,1.550474
237400575,1.56981
237438767,1.92038
237476220,0.744596
237514197,1.548862
237600615,1.701991
237636246,1.685878
237672998,1.677015
237709902,1.685072
237746742,1.641515
237781875,1.677821
237817465,1.66493
237854781,1.678627
237893771,1.643127
237932201,1.627819
237967001,1.633458
238003639,1.630236
238041141,1.718105
238079176,1.802701
238116733,1.566587
238202609,2.038009
238242035,1.533555
238285085,1.62379
238327559,1.682655
238364235,1.674598
238405888,1.677821
238442886,1.690712
238485106,1.672987
238526982,1.707631
238563885,1.668153
238602397,1.652845
238643666,1.622985
238684656,1.650428
238721732,1.63507
238765714,1.725356
238849336,1.530332
238889278,1.40379
238928627,1.203127
238970334,1.563365
239010484,1.655262
239055059,1.703603
239099611,1.698769
239138589,1.686683
239177751,1.655262
239217201,1.664124
239257785,1.669764
239298631,1.639098
239341386,1.586729
239382494,1.615734
239425025,1.622985
239514669,1.873651
239556006,1.548862
239600221,1.318389
239641588,2.744788
239686320,1.512607
239725736,1.640709
239766845,1.685878
239811608,1.706825
239853471,1.678627
239895578,1.671376
239939443,1.628624
239980025,1.664124
240021574,1.667347
240063698,1.627013
240107571,1.616539
240197717,1.722939
240240570,1.744692
240283140,1.542417
240327388,1.620568
240371576,0.8397161
240414092,1.571421
240455872,1.691517
240498992,1.725356
240540462,1.665736
240582786,1.651234
240630475,1.611705
240676167,1.655262
240725054,1.680238
240772242,1.653651
240816800,1.616539
240914030,1.680238
240960731,1.808341
241005932,1.556919
241052853,1.689906
241097998,0.9355916
241142635,1.541611
241189662,1.673793
241238471,1.67621
241288179,1.658485
241344306,1.634264
241397266,1.662513
241443780,1.668153
241494201,1.622985
241547128,1.59398
241593250,1.619762
241683874,1.527915
241732559,1.556919
241780329,2.982513
241828730,1.515024
241877372,1.644738
241926187,1.677821
241975516,1.63507
242024467,1.656068
242072055,1.622179
242122139,1.669764
242168458,1.672181
242217096,1.607677
242262591,1.583507
242311494,1.681044
242360759,1.747109
242455451,2.215308
242502022,1.237821
242554436,1.598009
242603173,1.641515
242656070,1.644738
242705965,1.621373
242752706,1.621373
242801673,1.626207
242848666,1.646349
242895014,1.657679
242945827,1.62943
242993642,1.678627
243041069,1.835733
243088497,1.579478
243136185,1.562559
243230312,1.557725
243277742,1.672987
243328417,1.701991
243374103,1.680238
243421675,1.668958
243470037,1.677015
243518373,1.693934
243566748,1.67057
243617238,1.631041
243669853,1.632653
243722031,1.655262
243771428,1.892987
243824810,1.541611
243879373,2.007393
243931277,1.32564
244030564,1.672181
244080243,1.67057
244134571,1.667347
244185122,1.67057
244238593,1.686683
244290745,1.662513
244340858,1.602037
244392810,1.602843
244442962,1.56981
244494875,1.809952
244545254,1.536777
244599371,1.315166
244652478,1.016159
244705035,1.567393
244756323,1.643932
244859033,1.656873
244911270,1.67621
244964095,1.705214
245015488,1.683461
245070592,1.668153
245127491,1.654456
245180852,1.710854
245231176,1.730996
245283577,1.555308
245337106,3.171092
245390912,1.537583
245443088,1.647155
245497556,1.689906
245551937,1.66493
245605813,1.682655
245708108,1.702797
245760643,1.631847
245813092,1.620568
245867825,1.660902
245922452,1.739858
245972565,1.532749
246025692,3.233934
246076156,1.511801
246131500,1.635875
246186917,1.709242
246238823,1.663319
246292368,1.642321
246345417,1.62943
246401175,1.658485
246455822,1.614122
246554797,1.627013
246606443,1.695546
246667709,1.541611
246724664,1.36834
246777283,1.007297
246833008,1.607677
246886074,1.678627
246943739,1.654456
247031714,1.675404
247067801,1.717299
247103638,1.690712
247138818,1.65929
247171531,1.674598
247209440,1.656873
247244071,1.622985
247327673,1.714076
247364116,1.84379
247400416,1.573033
247435514,1.568199
247473655,3.236351
247513214,1.26602
247550204,1.588341
247585543,1.671376
247620680,1.719716
247656251,1.686683
247691862,1.687489
247728884,1.698769
247765500,1.669764
247803080,1.686683
247840653,1.699574
247924434,1.619762
247962968,1.606065
247998070,1.624596
248036867,1.570616
248071366,1.717299
248107660,1.689101
248147402,1.543223
248184111,1.317583
248220878,2.323319
248258828,1.551279
248294040,1.655262
248329920,1.681044
248367825,1.725356
248405762,1.67621
248442944,1.660902
248528095,1.708437
248564084,1.70038
248600040,1.692323
248639456,1.655262
248676937,1.626207
248715516,1.647155
248753473,1.624596
248789914,1.747915
248827921,1.674598
248870675,1.551279
248912004,1.945356
248956062,1.014548
248995353,1.566587
249034104,1.611705
249075955,1.657679
249166548,1.643932
249208334,1.640709
249250719,1.658485
249292252,1.691517
249331744,1.685878
249373754,1.668153
249420034,1.639098
249464507,1.65929
249514534,1.885736
249560403,1.540806
249602422,1.523886
249646631,3.242797
249693200,1.519052
249735231,1.654456
249775114,1.701991
249866781,1.651234
249910773,1.674598
249953864,1.657679
249999638,1.678627
250043433,1.672987
250087648,1.631847
250131517,1.621373
250175682,1.617345
250220603,1.681044
250261749,1.851041
250304628,1.523886
250347813,1.29583
250392291,1.751138
250439794,1.522275
250483149,1.634264
250574287,1.643932
250621459,1.679432
250667407,1.634264
250715392,1.663319
250759337,1.665736
250802150,1.628624
250847690,1.616539
250891392,1.616539
250933451,1.639904
250976665,1.755166
251019123,1.767251
251061706,1.56981
251105280,1.597203
251146328,0.7252598
251189281,1.554502
251279940,1.738247
251323535,1.691517
251366503,1.710854
251408083,1.679432
251452197,1.66493
251496486,1.65929
251540745,1.610094
251586057,1.643932
251634966,1.618151
251684142,1.619762
251728385,1.681044
251778289,1.585924
251826358,1.561753
251874072,3.227489
251920303,1.517441
252011619,1.67621
252061859,1.664124
252106183,1.709242
252152309,1.678627
252198408,1.673793
252245396,1.691517
252294063,1.651234
252338780,1.663319
252387403,1.635875
252433840,1.606065
252484303,1.903461
252533158,1.554502
252580583,1.34417
252629324,0.8832227
252677708,1.597203
252773321,1.70038
252820902,1.63507
252867135,1.682655
252918451,1.664124
252970228,1.704408
253018364,1.660096
253064506,1.655262
253110835,1.592369
253160272,1.577867
253209190,1.852653
253254481,1.509384
253303085,1.429572
253352128,1.708437
253400841,1.581089
253450064,1.679432
253546957,1.673793
253595623,1.660096
253645264,1.647155
253692903,1.70038
253738786,1.671376
253784818,1.622985
253831428,1.666541
253882870,1.642321
253931195,1.72455
253976924,1.632653
254026527,1.564976
254074823,3.236351
254122398,1.486825
254172882,1.653651
254221790,1.698769
254319432,1.656068
254373299,1.65929
254426323,1.681044
254475632,1.637487
254527103,1.584312
254575385,1.615734
254628758,1.626207
254678512,1.725356
254729327,1.543223
254780193,1.446541
254829190,1.529526
254877731,1.594786
254932462,1.689906
254984981,1.688295
255037402,1.63507
255138995,1.653651
255191194,1.627819
255242065,1.589952
255296373,1.615734
255353004,1.633458
255405697,1.853458
255456838,1.562559
255509715,1.35545
255560954,0.8654978
255611592,1.615734
255663143,1.664124
255715672,1.652039
255766875,1.652039
255817363,1.667347
255869071,1.652039
255972318,1.615734
256025302,1.653651
256080869,1.633458
256130363,1.88493
256182292,1.553697
256237925,1.444124
256292451,1.192653
256344925,1.611705
256399356,1.668958
256452205,1.660902
256503799,1.708437
256558471,1.687489
256614392,1.686683
256666593,1.667347
256719952,1.625402
256818143,1.713271
256871382,1.690712
256927250,1.56981
256980599,2.581186
257034840,1.555308
257088727,1.677821
257141032,1.660096
257196730,1.640709
257255140,1.635875
257312444,1.631847
257371258,1.627013
257428141,1.594786
257482743,1.583507
257540511,1.832511
257630065,1.387677
257716353,1.532749
257752655,1.590758
257786813,1.630236
257823485,1.60526
257861968,1.583507
257899162,1.639904
257943084,1.689906
257984642,1.72455
258021481,1.750332
258058946,1.721328
258101419,1.634264
258138321,1.685878
258172326,1.697963
258210965,1.859149
258248663,1.567393
258333633,3.12678
258371379,1.171705
258409861,1.608482
258448899,1.667347
258488075,1.656068
258525429,1.590758
258564278,1.651234
258600068,1.717299
258639347,1.774502
258676315,1.696352
258714800,1.73583
258755377,1.708437
258793664,1.764028
258831929,1.770474
258875226,1.562559
258964922,3.056635
259006923,1.05891
259047031,1.517441
259083629,1.608482
259122997,1.590758
259160752,1.484408
259196665,1.56981
259235595,1.62943
259272709,1.643932
259310224,1.674598
259349495,1.718105
259384556,1.672987
259423910,1.622985
259463720,1.828483
259504279,1.537583
259587297,2.609384
259624397,1.003268
259664152,1.562559
259702120,1.672987
259742079,1.67057
259782129,1.601231
259824471,1.640709
259867471,1.712465
259906912,1.685878
259950299,1.739858
259992471,1.721328
260034973,1.677821
260073030,1.668153
260112388,1.780142
260157325,1.703603
260247129,2.176635
260289012,1.047631
260328442,1.59398
260370238,1.672987
260411926,1.693129
260451724,1.644738
260496472,1.622179
260537793,1.631847
260581975,1.664124
260623274,1.656873
260664600,1.635875
260706581,1.632653
260749564,1.632653
260793256,1.651234
260835549,1.833316
260924300,1.558531
260970458,3.238769
261016040,1.452181
261060535,1.560948
261101443,1.67621
261144890,1.683461
261187378,1.642321
261229936,1.664124
261270762,1.655262
261314961,1.69474
261358854,1.702797
261404114,1.67621
261447985,1.671376
261492076,1.650428
261534259,1.657679
261624250,1.656873
261668815,1.655262
261709212,1.639904
261750266,1.766445
261793290,1.703603
261838009,1.574644
261882029,2.041231
261925251,1.13545
261970438,1.582701
262012543,1.660902
262056886,1.710854
262100172,1.678627
262143593,1.710048
262184905,1.682655
262235397,1.652039
262333518,1.603648
262374761,1.604454
262421574,1.562559
262464686,1.622985
262511918,1.590758
262555548,1.596397
262600341,1.581089
262645760,1.721328
262689575,1.65929
262732852,1.581089
262781307,3.090474
262826592,1.43924
262873898,1.645544
262920704,1.690712
262967831,1.715688
263057954,1.679432
263108255,1.705214
263158543,1.688295
263204108,1.650428
263249931,1.622179
263297677,1.609288
263343660,1.627819
263389030,1.610094
263435288,1.616539
263482666,1.631041
263529786,1.660902
263575968,1.902655
263624440,1.592369
263674457,1.367535
263721318,0.7687664
263819701,1.682655
263864776,1.725356
263910044,1.714882
263960464,1.679432
264007714,1.669764
264057192,1.67057
264106742,1.681044
264151404,1.636681
264199802,1.618151
264248393,1.627819
264299326,1.611705
264346241,1.632653
264394361,1.628624
264442604,1.755972
264490649,1.653651
264588243,3.238769
264636593,1.493271
264685697,1.63507
264734327,1.692323
264781359,1.664124
264832119,1.682655
264885362,1.653651
264937493,1.67621
264991200,1.672987
265041320,1.639904
265090849,1.614928
265144309,1.620568
265196351,1.652039
265250759,1.628624
265302681,1.727773
265402221,1.387677
265451880,0.9799039
265506331,1.622179
265560200,1.687489
265621820,1.72455
265685908,1.709242
265737824,1.640709
265792305,1.701991
265850670,1.641515
265903140,1.591563
265953871,1.621373
266009657,1.667347
266062500,1.667347
266116282,1.880096
266169621,1.592369
266275884,1.560948
266330320,1.635875
266383208,1.683461
266440034,1.615734
266491605,1.709242
266546481,1.718105
266599839,1.710048
266655009,1.637487
266710861,1.645544
266764815,1.628624
266818615,1.677015
266876324,1.593175
266931231,1.556919
266988473,1.119336
267044388,1.631041
267144077,1.624596
267198450,1.602843
267252739,1.652039
267305266,1.645544
267358710,1.660096
267411514,1.643932
267463647,1.611705
267517520,1.62943
267570678,1.760806
267625701,1.564976
267679312,1.466683
267733139,1.187819
267786854,1.654456
267838738,1.677015
267893328,1.707631
267990550,1.653651
268046259,1.63507
268104633,1.636681
268164107,1.603648
268223858,1.592369
268312340,1.806729
268352693,1.564976
268389942,1.523081
268424618,3.24038
268458645,1.15398
268497157,1.555308
268533012,1.639904
268569200,1.685878
268605608,1.672181
268639859,1.657679
268722555,1.606065
268756928,1.652039
268794762,1.67621
268830710,1.690712
268871665,1.650428
268909209,1.637487
268946840,1.63507
268984896,1.687489
269022818,1.818009
269061721,1.551279
269098681,1.567393
269134455,3.226683
269174279,1.120142
269214528,1.566587
269253658,1.633458
269333894,1.614928
269371775,1.679432
269411243,1.651234
269448627,1.657679
269485022,1.664124
269522999,1.660096
269560646,1.652845
269598885,1.638292
269637382,1.653651
269676051,1.639904
269714877,1.802701
269752103,1.669764
269789997,1.564976
269825343,1.34981
269861678,2.11057
269944696,1.601231
269984089,1.672181
270023617,1.692323
270061550,1.651234
270101357,1.650428
270138172,1.63507
270178183,1.666541
270217853,1.668153
270256111,1.647155
270296590,1.622179
270343248,1.602843
270386062,1.612511
270422802,1.692323
270464598,1.652845
270502264,1.530332
270589029,0.937203
270630257,1.541611
270671195,1.632653
270712478,1.708437
270753804,1.714882
270791876,1.711659
270834006,1.695546
270873145,1.685878
270913051,1.705214
270953705,1.673793
270995419,1.652845
271035882,1.645544
271080385,1.628624
271126483,1.719716
271166673,1.884124
271255520,1.311943
271297979,1.602843
271340680,1.538389
271381642,1.642321
271424444,1.705214
271467413,1.697157
271510093,1.693129
271550843,1.697963
271591168,1.686683
271635942,1.650428
271677218,1.644738
271722474,1.645544
271762218,1.602037
271803737,1.581895
271848654,1.66493
271938129,1.537583
271980381,1.535166
272022190,0.9130327
272064389,1.556919
272108213,1.646349
272151478,1.674598
272195394,1.631041
272238959,1.673793
272281708,1.665736
272324803,1.684266
272367346,1.695546
272412170,1.631847
272453763,1.632653
272496780,1.618956
272541054,1.640709
272628183,1.549668
272671552,1.582701
272718005,3.204124
272764769,1.521469
272811682,1.651234
272859053,1.664124
272903119,1.668153
272950396,1.678627
273000084,1.677821
273046300,1.703603
273094606,1.667347
273140340,1.622179
273185246,1.601231
273232323,1.611705
273282766,1.834928
273380984,1.384454
273438987,1.033129
273493248,1.583507
273541541,1.650428
273591472,1.66493
273643768,1.685878
273692901,1.695546
273740308,1.677821
273790854,1.693129
273839938,1.619762
273888594,1.640709
273936806,1.663319
273985770,1.899432
274035050,1.548057
274082724,1.398956
274180984,1.556919
274227242,1.674598
274277177,1.674598
274324451,1.631041
274374268,1.66493
274427308,1.642321
274476193,1.703603
274524608,1.667347
274577066,1.621373
274626025,1.655262
274678185,1.736635
274729068,1.567393
274777941,1.573838
274828639,2.633554
274876725,1.544834
274968587,1.698769
275017136,1.63507
275064714,1.672181
275111404,1.639904
275161141,1.672181
275209005,1.652845
275258923,1.637487
275307224,1.622985
275354174,1.643932
275402489,1.688295
275451046,1.641515
275500436,1.567393
275548529,3.233129
275598060,1.496493
275648473,1.647961
275750391,1.672987
275804952,1.644738
275862235,1.633458
275917517,1.62379
275970417,1.628624
276023323,1.610899
276073108,1.618956
276128459,1.733413
276178726,1.677821
276230894,1.592369
276282967,3.223461
276334960,1.56981
276386996,1.690712
276437080,1.73019
276490473,1.701991
276586397,1.683461
276643134,1.687489
276695529,1.651234
276749740,1.631847
276803471,1.615734
276855218,1.603648
276909191,1.814786
276961928,1.537583
277013135,1.315166
277068724,1.057299
277124670,1.627013
277179584,1.671376
277230623,1.645544
277284062,1.672987
277337852,1.689906
277438204,1.67057
277488702,1.622985
277543259,1.618956
277597561,1.625402
277651337,1.67621
277704691,1.815592
277759772,1.56981
277811058,3.239574
277864713,1.500522
277921032,1.615734
277972005,1.690712
278024848,1.620568
278077984,1.672181
278132996,1.674598
278188343,1.677015
278287200,1.612511
278340805,1.616539
278393021,1.650428
278447784,1.695546
278503130,1.658485
278557142,1.583507
278610526,2.394218
278672628,1.62943
278731082,1.70038
278785312,1.686683
278842763,1.69474
278929863,1.697963
278963635,1.685072
278999358,1.678627
279035234,1.62379
279115538,1.582701
279148122,1.614122
279185898,1.59962
279220451,1.586729
279257094,1.729384
279293211,1.726162
279329722,1.580284
279364470,1.402985
279402971,3.213793
279441469,1.455404
279475551,1.577867
279510579,1.641515
279546776,1.633458
279582040,1.655262
279619576,1.681044
279702717,1.65929
279740328,1.677821
279775540,1.693129
279812942,1.664124
279850880,1.62943
279890121,1.63507
279925271,1.624596
279962415,1.677821
279996918,1.683461
280032938,1.67057
280072729,1.87929
280109392,1.543223
280145958,1.563365
280182613,2.870474
280219482,1.009714
280302627,1.637487
280341348,1.672987
280380069,1.681044
280417111,1.709242
280453635,1.717299
280490924,1.682655
280528022,1.703603
280566976,1.688295
280604512,1.660096
280642943,1.631847
280682884,1.595592
280720826,1.598814
280760861,1.602037
280802002,1.67621
280843441,1.820426
280929991,1.343365
280971914,1.174928
281010546,1.531943
281050922,1.62379
281095142,1.672181
281137698,1.682655
281181532,1.70038
281223534,1.672181
281262211,1.631847
281303920,1.672987
281347792,1.660096
281392350,1.614122
281444782,1.598814
281492523,1.631041
281533983,1.624596
281624707,1.580284
281671209,1.47474
281714715,2.909197
281756410,1.552085
281800162,1.637487
281842332,1.692323
281885650,1.712465
281928290,1.690712
281972141,1.701991
282015013,1.666541
282057617,1.681849
282100063,1.637487
282141953,1.627013
282185347,1.62379
282227371,1.621373
282316442,1.891376
282363819,1.552085
282408383,1.446541
282451536,2.961565
282498612,1.527109
282544508,1.636681
282591215,1.727773
282636695,1.66493
282679331,1.681044
282724725,1.631847
282768304,1.642321
282810184,1.665736
282854000,1.634264
282897273,1.622179
282938702,1.618956
283029103,1.671376
283071447,1.830899
283114433,1.552085
283157151,1.313555
283200347,1.259574
283241564,1.552891
283284766,1.65929
283328482,1.686683
283371464,1.647155
283416327,1.687489
283461365,1.660096
283509219,1.656873
283558433,1.698769
283607430,1.621373
283657543,1.616539
283751790,1.614928
283797896,1.862371
283841029,1.526304
283890032,1.44493
283935902,2.522371
283984966,1.56417
284030569,1.631041
284077305,1.663319
284120930,1.673793
284164774,1.678627
284214203,1.643932
284260117,1.70602
284311105,1.668958
284358119,1.643932
284406929,1.598814
284501801,1.705214
284548266,1.786587
284598302,1.557725
284645545,2.50948
284691469,1.255546
284743715,1.618956
284795348,1.677015
284843756,1.682655
284888600,1.650428
284935724,1.636681
284983638,1.660096
285031843,1.655262
285078666,1.622179
285129235,1.610899
285178039,1.651234
285271832,1.877679
285320797,1.595592
285370288,1.722133
285418477,1.063745
285467655,1.594786
285517057,1.689906
285564195,1.668153
285611764,1.686683
285661544,1.723745
285712625,1.738247
285761619,1.731801
285809863,1.66493
285859936,1.638292
285907758,1.618956
285958061,1.748721
286054510,1.573033
286103060,2.791517
286155316,1.481991
286211138,1.62943
286265309,1.666541
286314326,1.59398
286365682,1.642321
286417714,1.627013
286466519,1.660096
286517891,1.611705
286569075,1.611705
286620638,1.613317
286668868,1.651234
286722443,1.719716
286772599,1.548057
286870072,1.413458
286920996,1.632653
286972816,1.723745
287025226,1.686683
287078995,1.733413
287132817,1.718105
287184924,1.696352
287235514,1.671376
287288149,1.695546
287341148,1.638292
287394081,1.672181
287446292,1.686683
287500024,1.542417
287552048,3.237157
287604003,1.508579
287704328,1.683461
287759107,1.682655
287809771,1.687489
287864157,1.644738
287912914,1.65929
287964376,1.644738
288019739,1.624596
288071601,1.62943
288122035,1.637487
288175451,1.774502
288229815,1.553697
288284014,3.236351
288338174,1.523081
288393135,1.631847
288444876,1.67621
288543245,1.683461
288594613,1.691517
288649006,1.673793
288705256,1.671376
288757899,1.637487
288811139,1.62379
288864609,1.732607
288916267,1.606065
288970723,1.556113
289029034,1.938105
289087527,1.574644
289147110,1.65929
289204466,1.650428
289260468,1.672181
289319388,1.678627
289425398,1.655262
289482649,1.645544
289540425,1.631847
289625166,1.726162
289661698,1.658485
289699973,1.544028
289739263,1.45057
289783708,0.7510414
289826070,1.570616
289862015,1.644738
289899831,1.67621
289941316,1.665736
289977913,1.66493
290014151,1.67057
290052274,1.702797
290133336,1.706825
290171724,1.674598
290210628,1.638292
290248106,1.664124
290286684,1.643932
290323709,1.657679
290363278,1.786587
290400570,1.664124
290441051,1.56981
290478450,1.51019
290514447,1.453793
290555331,1.51019
290594566,1.603648
290632155,1.632653
290673564,1.664124
290758174,1.701991
290800514,1.674598
290840697,1.714076
290877839,1.737441
290917876,1.698769
290956003,1.652039
290994706,1.619762
291034545,1.606871
291073503,1.690712
291110296,1.677015
291148943,1.524692
291185657,1.302275
291222879,3.049384
291260201,1.493271
291297962,1.613317
291382452,1.703603
291419144,1.661707
291456418,1.683461
291495869,1.644738
291535539,1.640709
291575081,1.652039
291618563,1.660096
291659510,1.637487
291704464,1.627819
291749182,1.643127
291790725,1.725356
291832992,1.690712
291873750,1.557725
291918403,2.208057
291959006,0.9871549
292047791,1.657679
292088056,1.70602
292128454,1.666541
292169612,1.672181
292207980,1.654456
292252066,1.660902
292294508,1.699574
292338693,1.677015
292381827,1.612511
292423181,1.606065
292466267,1.591563
292509021,1.719716
292552280,1.818009
292592062,1.578672
292631694,1.330474
292723398,1.585924
292769751,1.666541
292813752,1.723745
292854168,1.706825
292896863,1.701186
292940191,1.688295
292982318,1.680238
293020760,1.675404
293063636,1.663319
293106232,1.607677
293149412,1.596397
293192902,1.606871
293237899,1.718105
293281641,1.73583
293325580,1.532749
293415077,1.061328
293455138,1.577867
293497440,1.638292
293541655,1.660902
293587379,1.639098
293630741,1.67621
293672472,1.631041
293714063,1.682655
293756614,1.681044
293799342,1.669764
293844107,1.630236
293887184,1.577867
293932688,1.656068
293983778,1.777725
294031365,1.574644
294120038,1.004074
294166814,1.624596
294213509,1.705214
294258984,1.718105
294304338,1.637487
294351193,1.674598
294397264,1.684266
294440221,1.719716
294489312,1.679432
294532243,1.668153
294577085,1.653651
294623452,1.627819
294669074,1.71891
294714073,1.721328
294762782,1.524692
294857709,1.384454
294902585,1.615734
294947550,1.642321
294994570,1.677015
295040046,1.669764
295084901,1.671376
295132778,1.682655
295181854,1.698769
295228599,1.651234
295275294,1.627819
295321389,1.60526
295369439,1.62943
295413879,1.717299
295463763,1.646349
295508080,1.569004
295597858,1.319194
295647552,1.592369
295692952,1.680238
295738986,1.685072
295789484,1.67057
295836417,1.714882
295885223,1.73019
295934251,1.683461
295982938,1.650428
296030284,1.608482
296079897,1.626207
296124823,1.679432
296173941,1.759194
296223934,1.552891
296271241,2.666587
296366160,1.574644
296414197,1.643932
296462416,1.651234
296510586,1.616539
296563400,1.618956
296612633,1.651234
296665633,1.641515
296716055,1.596397
296764256,1.582701
296814077,1.628624
296868208,1.82526
296919778,1.538389
296973301,1.515024
297022255,1.063745
297073642,1.602843
297174650,1.652039
297229524,1.652039
297291370,1.677015
297349318,1.697157
297402450,1.682655
297456628,1.650428
297514984,1.652039
297567178,1.89621
297618084,1.552085
297673068,1.54
297724329,1.083081
297777416,1.620568
297829170,1.660902
297882285,1.655262
297937620,1.627819
298034288,1.721328
298089284,1.674598
298142030,1.627013
298196602,1.611705
298249627,1.737441
298304192,1.598814
298360648,1.51019
298413786,1.614122
298466973,1.581895
298523895,1.66493
298578199,1.690712
298634822,1.660902
298690475,1.633458
298743058,1.661707
298798570,1.645544
298897798,1.634264
298949709,1.71891
299001499,1.737441
299055877,1.594786
299108125,3.231518
299162148,1.498105
299213552,1.624596
299267232,1.682655
299321919,1.658485
299375876,1.703603
299427794,1.67621
299478444,1.706825
299533150,1.673793
299588217,1.642321
299643204,1.619762
299746413,1.632653
299806529,1.492465
299863628,0.7752118
299924112,1.595592
299983247,1.693129
300040352,1.654456
300097461,1.692323
300150999,1.650428
300209506,1.657679
300296661,1.65929
300329522,1.640709
300364254,1.622179
300400051,1.646349
300432826,1.729384
300471529,1.747915
300553424,1.397345
300593684,1.195876
300630256,1.540806
300666152,1.624596
300702597,1.665736
300739606,1.678627
300777082,1.610094
300812479,1.62943
300848651,1.652039
300888755,1.652039
300929655,1.65929
300968227,1.657679
301003102,1.627013
301040160,1.625402
301076437,1.638292
301160278,1.840568
301195844,1.647961
301235358,1.542417
301274608,1.674598
301311975,0.8638865
301348794,1.495688
301386051,1.585924
301421170,1.644738
301458799,1.678627
301497237,1.63507
301532010,1.669764
301568635,1.671376
301605487,1.678627
301643879,1.682655
301681812,1.678627
301763290,1.626207
301799316,1.663319
301835055,1.655262
301871152,1.839762
301910420,1.614122
301947917,1.573033
301987782,1.837345
302032633,1.032323
302074879,1.573838
302112881,1.624596
302154131,1.699574
302194725,1.695546
302233666,1.681044
302272623,1.696352
302312516,1.660096
302397141,1.67057
302432906,1.647155
302475167,1.653651
302514329,1.610094
302553612,1.665736
302594417,1.845402
302637225,1.536777
302678578,1.431183
302721427,3.096969
302764326,1.485214
302803709,1.611705
302843099,1.675404
302884618,1.702797
302926363,1.62379
302967384,1.650428
303052815,1.681044
303096663,1.679432
303137663,1.657679
303178817,1.608482
303221411,1.594786
303265451,1.597203
303308157,1.801895
303352368,1.537583
303391359,1.557725
303430948,2.564266
303476454,1.30872
303519526,1.63507
303561735,1.726967
303602752,1.730996
303644031,1.652845
303732921,1.652845
303776222,1.73583
303821256,1.681849
303862927,1.663319
303905111,1.618956
303945379,1.611705
303989101,1.637487
304034196,1.861565
304076123,1.544028
304119046,1.540806
304161419,3.23474
304201120,1.293413
304243570,1.573033
304289767,1.650428
304335938,1.70602
304426359,1.695546
304471466,1.664124
304514808,1.701991
304560546,1.682655
304608078,1.624596
304653939,1.634264
304701921,1.72455
304745395,1.73019
304788721,1.538389
304836460,2.084788
304883833,1.05891
304939779,1.592369
304991945,1.671376
305038165,1.662513
305086790,1.639098
305187429,1.677821
305233097,1.671376
305278685,1.636681
305327206,1.60526
305375479,1.740664
305423741,1.70602
305471684,1.535972
305519835,3.236351
305568203,1.498105
305616640,1.66493
305665784,1.70038
305713239,1.639904
305762204,1.62379
305807934,1.656873
305857270,1.665736
305952752,1.639904
305999797,1.650428
306047316,1.638292
306096388,1.839762
306145380,1.527915
306199604,2.374882
306248509,1.330474
306295655,1.583507
306343863,1.668153
306391098,1.687489
306437695,1.684266
306487875,1.656873
306534523,1.677821
306581515,1.70602
306630129,1.645544
306724592,1.622985
306772603,1.729384
306820877,1.739052
306869415,1.567393
306917700,3.226683
306965110,1.402985
307014440,1.606065
307063408,1.647155
307114681,1.660902
307164388,1.698769
307219093,1.669764
307273043,1.720522
307325495,1.650428
307379074,1.652845
307430737,1.60526
307527781,1.859954
307576257,1.563365
307628217,1.322417
307681069,0.9549278
307728725,1.614928
307779378,1.696352
307829557,1.665736
307877949,1.639098
307930639,1.663319
307982716,1.699574
308037132,1.718105
308088552,1.654456
308139701,1.620568
308192465,1.640709
308243970,1.837345
308343199,1.360284
308394604,0.8235523
308444768,1.541611
308501307,1.679432
308557385,1.677015
308611248,1.660902
308662943,1.652039
308715244,1.685072
308769385,1.654456
308822174,1.618151
308873222,1.60526
308926603,1.630236
308979696,1.728579
309034099,1.554502
309086292,1.533555
309183805,1.544834
309234384,1.652845
309286883,1.711659
309340540,1.664124
309392246,1.647155
309446447,1.681044
309498640,1.685072
309554283,1.615734
309609099,1.611705
309660534,1.633458
309714926,1.689906
309766210,1.746303
309820526,1.549668
309874910,3.233129
309927682,1.524692
310028590,1.721328
310088477,1.688295
310147355,1.671376
310200847,1.680238
310257456,1.680238
310315522,1.626207
310370944,1.655262
310426211,1.627013
310481514,1.820426
310536849,1.560142
310589067,1.405402
310646403,1.164454
310701552,1.602843
310756590,1.660096
310813834,1.63507
310946273,1.701991
310984801,1.703603
311022015,1.682655
311057725,1.65929
311093720,1.643932
311129471,1.651234
311165769,1.632653
311201120,1.671376
311238252,1.891376
311275270,1.581895
311311477,1.583507
311347799,1.531138
311384355,1.113696
311422422,1.522275
311459515,1.614928
311547283,1.67621
311580493,1.601231
311615432,1.663319
311653924,1.656068
311689428,1.671376
311724902,1.688295
311762608,1.658485
311797126,1.667347
311831637,1.632653
311870802,1.635875
311909936,1.63507
311947000,1.634264
311983561,1.67057
312018303,1.892987
312056459,1.564976
312141563,3.23474
312179839,1.286967
312215315,1.612511
312253023,1.635875
312289014,1.683461
312327800,1.696352
312369499,1.671376
312408838,1.683461
312450425,1.655262
312491319,1.697963
312529149,1.658485
312569517,1.655262
312609844,1.644738
312651763,1.620568
312694227,1.618956
312779139,1.76
312819394,1.751138
312863034,1.530332
312904681,1.452181
312954897,1.036352
313000142,1.59962
313041918,1.697963
313086809,1.709242
313134416,1.685072
313175409,1.681044
313214602,1.642321
313258487,1.667347
313301301,1.698769
313343369,1.662513
313387987,1.627013
313476144,1.608482
313520340,1.608482
313561640,1.692323
313605283,1.610094
313646856,1.552085
313690041,2.090428
313730073,0.9782926
313771961,1.552085
313817413,1.642321
313859562,1.697963
313901787,1.665736
313947743,1.673793
313991157,1.696352
314038848,1.722133
314081683,1.730996
314171019,1.622179
314213692,1.624596
314256110,1.607677
314296794,1.697157
314338564,1.798673
314381585,1.544028
314424132,1.354644
314464927,1.273271
314504641,1.516635
314548017,1.618151
314591732,1.67057
314635569,1.663319
314677437,1.683461
314719184,1.67621
314761911,1.666541
314850517,1.641515
314894175,1.619762
314937877,1.627013
314986718,1.633458
315033502,1.748721
315081603,1.67621
315128428,1.556919
315174443,3.197679
315220666,1.413458
315262429,1.597203
315309921,1.656873
315355988,1.677821
315400938,1.657679
315445937,1.646349
315492650,1.643932
315583476,1.651234
315629909,1.658485
315675132,1.650428
315723899,1.63507
315771441,1.714882
315818093,1.763223
315865285,1.543223
315910269,2.159716
315957487,1.235354
316003533,1.602843
316048030,1.685878
316098029,1.697963
316149560,1.654456
316197655,1.656873
316242326,1.660096
316334451,1.656873
316383014,1.632653
316431683,1.614928
316477111,1.627013
316524913,1.748721
316572479,1.686683
316621467,1.543223
316670740,3.237963
316717387,1.490854
316762382,1.644738
316808452,1.690712
316854533,1.696352
316900384,1.656068
316946739,1.671376
316993000,1.66493
317089361,1.634264
317137908,1.609288
317184856,1.60526
317233829,1.602843
317280412,1.697157
317329415,1.722939
317380048,1.589146
317426174,2.859194
317474784,1.452181
317530560,1.618151
317582343,1.714076
317629023,1.663319
317679935,1.715688
317732276,1.645544
317782132,1.685878
317877319,1.613317
317927162,1.620568
317976949,1.597203
318022516,1.698769
318074396,1.607677
318122992,1.569004
318173417,3.215404
318223588,1.53436
318271382,1.624596
318323709,1.705214
318377161,1.681044
318427791,1.660096
318478174,1.634264
318528481,1.674598
318580114,1.651234
318678139,1.598814
318729782,1.592369
318782272,1.87929
318833869,1.577867
318884725,2.050094
318934718,1.302275
318988410,1.650428
319040506,1.732607
319094287,1.683461
319142751,1.706825
319192865,1.660096
319248042,1.67621
319297984,1.663319
319350948,1.620568
319405267,1.606065
319503687,1.885736
319556476,1.587535
319609291,1.464266
319663807,1.207961
319715173,1.627013
319767779,1.679432
319817716,1.685072
319870021,1.667347
319924721,1.640709
319975991,1.639904
320027054,1.677821
320081308,1.627819
320131585,1.619762
320183781,1.636681
320240759,1.913935
320345370,1.826871
320402337,1.429572
320458688,1.597203
320511745,1.654456
320567105,1.67057
320624271,1.679432
320679963,1.656873
320737402,1.685072
320790754,1.628624
320846590,1.622985
320905658,1.666541
320964296,1.799478
321029226,1.566587
321092183,0.9106157
321149208,1.615734
321252587,1.695546
321313312,1.693934
321369118,1.660902
321423010,1.716493
321480302,1.668153
321537824,1.619762
321594806,1.590758
321632378,1.704408
321669588,1.81962
321705799,1.548862
321743269,1.513413
321781509,3.239574
321814778,1.1709
321852424,1.536777
321887755,1.633458
321970043,1.651234
322009587,1.614122
322046077,1.633458
322082354,1.627819
322121167,1.636681
322158110,1.614928
322198498,1.608482
322237090,1.622985
322272236,1.619762
322310183,1.618956
322347106,1.722939
322382202,1.802701
322421010,1.542417
322456423,1.48602
322492005,3.238769
322574679,1.577061
322608494,1.642321
322646016,1.710854
322681972,1.693129
322720353,1.70038
322756455,1.692323
322792741,1.645544
322829879,1.646349
322866046,1.677821
322907193,1.669764
322945575,1.650428
322987770,1.660902
323028861,1.650428
323070323,1.710854
323110339,1.743886
323199524,2.0864
323238027,0.9106157
323275269,1.560948
323316168,1.632653
323358153,1.685878
323396680,1.667347
323435412,1.673793
323474620,1.672181
323512214,1.677821
323554523,1.679432
323593316,1.658485
323637238,1.625402
323678578,1.622985
323719988,1.637487
323761089,1.71891
323845412,1.553697
323884562,1.309526
323922916,2.349906
323962975,1.48038
324007632,1.563365
324052458,1.681044
324095149,1.658485
324136160,1.638292
324177331,1.662513
324220105,1.67057
324261627,1.697157
324299592,1.663319
324341448,1.660902
324383227,1.610899
324425733,1.584312
324516692,1.614928
324560318,1.550474
324599840,2.337015
324640155,1.012937
324682676,1.466683
324721361,1.548057
324762239,1.652039
324802758,1.706825
324847022,1.703603
324888880,1.685072
324929961,1.714882
324970041,1.748721
325010015,1.747109
325051314,1.699574
325092653,1.654456
325178051,1.92038
325219262,1.579478
325267248,1.476351
325312085,2.155688
325354260,1.577867
325399561,1.697157
325444287,1.716493
325488175,1.672987
325531378,1.642321
325574352,1.678627
325615651,1.709242
325656728,1.702797
325702902,1.722133
325745780,1.669764
325790780,1.579478
325884341,1.536777
325928619,1.52872
325975142,3.202513
326022890,1.502939
326067978,1.621373
326110958,1.685072
326156243,1.634264
326199385,1.641515
326242990,1.638292
326286576,1.639098
326332832,1.639904
326380443,1.622985
326424642,1.622179
326469120,1.677015
326517243,1.793033
326608413,1.822843
326656710,1.172511
326698618,1.637487
326743127,1.704408
326791302,1.693129
326836229,1.606065
326881453,1.679432
326928463,1.640709
326972984,1.647155
327020302,1.691517
327069207,1.618956
327117328,1.713271
327165068,1.687489
327211055,1.532749
327255495,3.220238
327347952,1.600426
327397412,1.666541
327445168,1.666541
327490363,1.627013
327538740,1.606871
327585098,1.632653
327631604,1.645544
327684268,1.618151
327735987,1.638292
327787702,1.760806
327836005,1.520664
327885454,2.14038
327937569,1.329668
327989230,1.598814
328040897,1.702797
328138624,1.668153
328188138,1.647155
328237986,1.677821
328287631,1.638292
328341670,1.593175
328401032,1.682655
328457278,1.524692
328506189,1.512607
328560088,1.321611
328615247,1.570616
328667128,1.664124
328714745,1.651234
328768253,1.619762
328819274,1.643932
328871790,1.675404
328970092,1.63507
329023487,1.668153
329074080,1.873651
329127324,1.564976
329177859,2.548153
329230057,1.454598
329281599,1.62379
329334757,1.701991
329388824,1.632653
329439574,1.674598
329491343,1.65929
329545930,1.710048
329605820,1.662513
329661049,1.615734
329714051,1.726162
329809479,1.540806
329864894,3.241991
329916819,1.516635
329967131,1.666541
330020320,1.704408
330072226,1.642321
330124926,1.66493
330176635,1.65929
330225764,1.646349
330278583,1.626207
330329644,1.617345
330383183,1.657679
330436145,1.728579
330487404,1.525498
330540562,1.375592
330641538,1.576255
330695774,1.677821
330748505,1.663319
330807331,1.701991
330865022,1.667347
330922744,1.710048
330979031,1.690712
331033571,1.679432
331086576,1.67057
331140753,1.826066
331197671,1.558531
331253222,1.518247
331306867,1.083886
331360330,1.615734
331415132,1.713271
331513201,1.660902
331571083,1.664124
331624015,1.693934
331683547,1.65929
331739110,1.620568
331794922,1.607677
331848649,1.853458
331902964,1.526304
331957699,1.864788
332010792,1.384454
332066567,1.60526
332124311,1.692323
332183820,1.59398
332271681,1.63507
332307206,1.678627
332392134,1.632653
332426854,1.654456
332460907,1.660902
332496225,1.645544
332532449,1.698769
332568921,1.892181
332605118,1.552085
332642604,1.570616
332679093,2.617441
332715553,0.8928908
332752965,1.51583
332786018,1.597203
332822173,1.62943
332856312,1.639098
332894820,1.619762
332978887,1.678627
333014236,1.66493
333051523,1.682655
333086550,1.677821
333124066,1.631847
333161290,1.613317
333196223,1.585924
333234772,1.595592
333276852,1.681849
333316474,1.723745
333352949,1.527109
333392477,1.268437
333432291,2.412749
333470523,1.477157
333508879,1.594786
333592731,1.675404
333630195,1.637487
333665436,1.669764
333705716,1.652039
333742812,1.722133
333781644,1.70602
333820380,1.70602
333857380,1.672181
333899553,1.62943
333941628,1.631041
333980953,1.630236
334020334,1.727773
334059837,1.651234
334099495,1.560948
334139460,2.025118
334224770,1.542417
334266283,1.644738
334305854,1.697157
334345595,1.652845
334385877,1.683461
334427594,1.682655
334467993,1.680238
334510592,1.677821
334547936,1.635875
334585805,1.657679
334628784,1.62379
334669268,1.644738
334707751,1.740664
334749068,1.803506
334788536,1.54564
334875558,1.157203
334918528,1.532749
334961593,1.686683
335001407,1.682655
335043617,1.678627
335083946,1.70602
335126126,1.718105
335169516,1.717299
335209713,1.76
335249173,1.652039
335290919,1.612511
335329787,1.613317
335369618,1.655262
335415111,1.886541
335459413,1.548057
335550257,1.342559
335595035,1.554502
335636522,1.611705
335680354,1.705214
335727554,1.636681
335773349,1.627819
335819744,1.673793
335860852,1.684266
335903412,1.677821
335950944,1.679432
335998167,1.665736
336052632,1.729384
336102554,1.719716
336146601,1.52872
336193069,2.752845
336288834,1.595592
336332367,1.652039
336375009,1.689906
336422663,1.635875
336467923,1.665736
336516148,1.690712
336560827,1.684266
336608461,1.637487
336652433,1.610899
336701084,1.616539
336746052,1.799478
336794379,1.448153
336839587,1.411041
336886602,2.301566
336934250,1.544028
337025144,1.681044
337071361,1.635875
337120900,1.697963
337168164,1.690712
337218829,1.73019
337266976,1.710048
337312329,1.652039
337360576,1.645544
337406698,1.711659
337451280,1.839762
337496787,1.526304
337542935,1.719716
337589619,1.008908
337633341,1.552085
337678275,1.658485
337773395,1.635875
337818814,1.711659
337866539,1.695546
337912033,1.682655
337957741,1.66493
338005072,1.67057
338051704,1.656873
338099894,1.743081
338147525,1.764834
338199348,1.562559
338250074,3.241185
338303145,1.510996
338352574,1.611705
338403059,1.67621
338451224,1.641515
338539997,1.674598
338592415,1.699574
338642608,1.663319
338691490,1.625402
338740375,1.610094
338789112,1.625402
338836051,1.81398
338887852,1.518247
338937644,2.148437
338991096,1.365924
339040941,1.573838
339090766,1.633458
339141913,1.608482
339192302,1.645544
339242047,1.631041
339338469,1.652845
339386362,1.632653
339438334,1.601231
339491158,1.693129
339539037,1.764834
339589120,1.540806
339641101,3.238769
339691194,1.498911
339741851,1.672987
339793493,1.693129
339844785,1.668153
339896584,1.693129
339949672,1.677821
340000874,1.714882
340052555,1.632653
340146662,1.625402
340198531,1.660902
340245547,1.870428
340296563,1.553697
340345830,2.504646
340399359,1.489242
340451411,1.634264
340501715,1.683461
340554231,1.667347
340604459,1.695546
340657205,1.611705
340709862,1.668153
340758923,1.614928
340810368,1.627013
340868391,1.633458
340971002,1.654456
341023803,1.573033
341078645,1.834928
341131683,1.574644
341184757,1.693129
341237956,1.654456
341289387,1.642321
341338529,1.619762
341394089,1.652845
341446352,1.658485
341499537,1.602843
341552351,1.635875
341605945,1.620568
341662170,1.864788
341718422,1.577061
341814991,1.27891
341867296,1.620568
341920549,1.66493
341975230,1.66493
342029977,1.696352
342084942,1.710854
342141497,1.685072
342196392,1.625402
342251397,1.589952
342305965,1.611705
342362812,1.81398
342415485,1.555308
342470155,1.447347
342523663,1.133033
342576886,1.564976
342676130,1.663319
342728998,1.685072
342782102,1.672987
342839764,1.666541
342924264,1.65929
342959905,1.631847
342998381,1.635875
343032287,1.665736
343065569,1.672181
343097215,1.814786
343133061,1.622179
343170706,1.556919
343204677,1.383648
343240106,2.349906
343276538,1.527915
343356255,1.661707
343393013,1.685878
343432562,1.639904
343471066,1.697157
343511041,1.65929
343550104,1.691517
343585848,1.692323
343624965,1.681044
343665966,1.612511
343704323,1.637487
343743622,1.62943
343781450,1.62379
343819484,1.710854
343862240,1.747109
343903185,1.544834
343991611,0.7719891
344034955,1.551279
344072978,1.645544
344111347,1.698769
344157036,1.690712
344194799,1.689101
344231504,1.726162
344272814,1.682655
344311932,1.701991
344351290,1.66493
344391415,1.635875
344432244,1.633458
344470988,1.638292
344511226,1.647961
344547453,1.727773
344634960,1.548862
344674542,1.800284
344713920,0.7752118
344756929,1.579478
344796548,1.673793
344836290,1.717299
344878219,1.672181
344919140,1.673793
344963239,1.65929
345003534,1.650428
345042463,1.656873
345084463,1.616539
345123945,1.59398
345162659,1.573838
345203180,1.588341
345285337,1.802701
345323501,1.60526
345363250,1.541611
345402223,1.988057
345443384,0.9251179
345482788,1.571421
345524399,1.645544
345563784,1.686683
345601615,1.653651
345642139,1.67057
345682568,1.660902
345723094,1.686683
345763917,1.731801
345813136,1.692323
345860369,1.614928
345954404,1.646349
346000418,1.740664
346044007,1.538389
346087989,1.548862
346127506,3.237157
346171287,1.340948
346214015,1.556113
346256788,1.627819
346299516,1.671376
346342358,1.67057
346383421,1.693129
346429461,1.63507
346473207,1.672987
346519852,1.630236
346564580,1.62943
346649712,1.643932
346693452,1.684266
346736689,1.842179
346781439,1.544834
346824736,1.342559
346868713,0.8695262
346915154,1.59398
346961691,1.669764
347003527,1.682655
347047826,1.666541
347093724,1.682655
347138366,1.650428
347181014,1.693129
347227661,1.693934
347272523,1.631041
347364589,1.628624
347409558,1.738247
347453248,1.837345
347495608,1.549668
347538810,1.445736
347584250,0.7574868
347625842,1.56981
347669989,1.678627
347714220,1.690712
347760186,1.62943
347807170,1.665736
347853800,1.62379
347899189,1.647155
347945609,1.637487
347991219,1.620568
348079678,1.600426
348124597,1.695546
348173270,1.560948
348225710,1.479574
348273842,2.273367
348322237,1.56417
348371607,1.665736
348417985,1.72455
348464326,1.708437
348510803,1.73019
348557335,1.679432
348601603,1.699574
348651043,1.668153
348695363,1.660902
348743440,1.632653
348836530,1.856732
348885042,1.56981
348935845,1.473129
348986791,1.075024
349035105,1.586729
349083593,1.65929
349132015,1.688295
349178907,1.671376
349226767,1.685878
349274896,1.673793
349322960,1.655262
349371889,1.631041
349419528,1.621373
349466874,1.654456
349517706,1.751943
349611706,1.558531
349660330,3.138865
349706091,1.515024
349755693,1.606065
349806690,1.656873
349856817,1.631041
349907023,1.690712
349955966,1.660902
350007572,1.657679
350057623,1.587535
350109170,1.596397
350159695,1.593175
350210468,1.691517
350258187,1.521469
350307573,1.508579
350404024,1.500522
350453266,1.622179
350503542,1.657679
350555076,1.645544
350603093,1.674598
350654887,1.652039
350709344,1.677015
350762627,1.669764
350818298,1.621373
350872699,1.644738
350924928,1.891376
350977564,1.582701
351031374,2.088011
351087443,1.444124
351141980,1.590758
351239235,1.652845
351292116,1.721328
351345553,1.631847
351401260,1.683461
351457542,1.628624
351520119,1.606065
351578508,1.63507
351631405,1.882513
351688420,1.550474
351749062,3.237157
351805512,1.503745
351856060,1.630236
351911026,1.679432
351965499,1.668958
352022812,1.641515
352121838,1.663319
352177361,1.626207
352231118,1.633458
352290032,1.646349
352342478,1.87929
352398358,1.580284
352452577,2.905974
352507192,1.490048
352566142,1.639098
352619036,1.726967
352673450,1.673793
352730476,1.645544
352786426,1.654456
352845774,1.650428
352901036,1.633458
352998983,1.641515
353055983,1.855875
353112493,1.580284
353165713,3.230712
353222512,1.506967
353275141,1.654456
353327813,1.660096
353382106,1.654456
353437666,1.710854
353493501,1.680238
353580246,1.634264
353613754,1.618151
353649499,1.633458
353683941,1.606871
353719400,1.715688
353799458,1.539194
353835111,1.50455
353879020,0.6938384
353918146,1.548862
353959328,1.607677
353997754,1.689101
354035502,1.665736
354071528,1.591563
354107052,1.636681
354146312,1.672181
354184270,1.666541
354221211,1.646349
354257981,1.667347
354294827,1.63507
354329840,1.631041
354412553,1.805118
354448595,1.71891
354490102,1.577061
354528793,1.681044
354566782,0.8009933
354605235,1.557725
354643520,1.620568
354682180,1.698769
354719845,1.710048
354757896,1.693934
354799320,1.690712
354839229,1.661707
354875368,1.690712
354913434,1.692323
354953388,1.631847
355037243,1.57545
355073029,1.63507
355111890,1.872039
355150627,1.542417
355190780,1.549668
355229455,2.806825
355270196,1.141089
355307484,1.577867
355347029,1.624596
355385493,1.65929
355422987,1.630236
355461820,1.635875
355501610,1.657679
355542793,1.641515
355584309,1.640709
355666208,1.611705
355706172,1.583507
355746126,1.619762
355786170,1.721328
355826794,1.67057
355865822,1.557725
355905419,1.772891
355950533,1.082275
355992864,1.581895
356035392,1.658485
356079655,1.675404
356120798,1.631847
356162169,1.735024
356203305,1.679432
356242746,1.704408
356326949,1.645544
356371540,1.632653
356409685,1.603648
356451812,1.797061
356494574,1.554502
356534082,1.532749
356578035,3.212987
356622328,1.236965
356664712,1.611705
356706084,1.622985
356748582,1.686683
356791356,1.651234
356832073,1.680238
356876588,1.683461
356922344,1.696352
357006879,1.637487
357049903,1.631847
357093484,1.767251
357138463,1.689906
357182119,1.533555
357227427,2.383744
357267428,0.9186725
357309872,1.550474
357356400,1.640709
357399472,1.690712
357440708,1.615734
357486272,1.627013
357529181,1.646349
357574732,1.702797
357619521,1.661707
357705654,1.611705
357750509,1.639904
357793367,1.876873
357835802,1.537583
357882083,1.358672
357924683,2.669004
357967866,1.50455
358012005,1.63507
358053690,1.723745
358096935,1.680238
358144200,1.672181
358189477,1.689906
358236416,1.713271
358285464,1.728579
358332019,1.677821
358422583,1.625402
358469895,1.70602
358518748,1.569004
358566168,1.522275
358614149,3.215404
358659172,1.502133
358706634,1.581895
358754228,1.613317
358805610,1.577061
358862146,1.641515
358913137,1.646349
358958337,1.664124
359009530,1.633458
359063274,1.606065
359111546,1.638292
359204127,1.580284
359256053,1.40943
359305210,1.043603
359355104,1.631041
359404347,1.681849
359453744,1.65929
359503260,1.607677
359554782,1.663319
359603051,1.686683
359654329,1.683461
359702799,1.627819
359753347,1.624596
359806303,1.688295
359855144,1.772891
359903940,1.577867
360000222,1.481186
360050266,1.597203
360104577,1.695546
360155465,1.655262
360205390,1.639098
360256364,1.67057
360305228,1.690712
360352185,1.66493
360400325,1.624596
360447027,1.589952
360494889,1.681044
360544498,1.718105
360592126,1.549668
360642178,2.862417
360691429,1.404596
360785357,1.699574
360833554,1.693934
360883374,1.674598
360930508,1.667347
360982596,1.705214
361031889,1.699574
361087564,1.639098
361142589,1.614122
361201803,1.673793
361255890,1.710048
361307831,1.569004
361358041,3.230712
361409383,1.482797
361462768,1.581089
361516931,1.682655
361612508,1.677015
361664131,1.661707
361714941,1.666541
361763903,1.596397
361817150,1.598814
361869837,1.612511
361927584,1.855875
361979619,1.582701
362033605,2.2
362086936,1.319194
362139187,1.665736
362192945,1.682655
362244440,1.631041
362296309,1.714882
362352891,1.703603
362453881,1.635875
362504014,1.653651
362555991,1.657679
362612156,1.895404
362667082,1.544834
362718802,2.524788
362774526,1.498911
362828481,1.574644
362883548,1.697157
362939162,1.650428
362994719,1.62379
363046788,1.62943
363097854,1.67621
363152209,1.609288
363204456,1.589952
363300634,1.882513
363352362,1.563365
363408448,1.682655
363466392,1.40379
363519397,1.673793
363574700,1.689906
363629805,1.652845
363684864,1.698769
363740681,1.692323
363794258,1.685878
363849240,1.634264
363909586,1.632653
363967770,1.689906
364024759,1.709242
364083407,1.54564
364185887,1.521469
364240805,1.632653
364324848,1.62943
364357025,1.67621
364395597,1.701991
364429729,1.644738
364465664,1.70602
364501304,1.672987
364537603,1.614928
364575350,1.606065
364615345,1.625402
364651588,1.589146
364685542,1.678627
364721761,1.78981
364758226,1.544028
364837958,2.914031
364874956,1.411847
364913385,1.615734
364950202,1.665736
364987021,1.677821
365023478,1.664124
365062343,1.725356
365096739,1.738247
365134882,1.73583
365169411,1.72455
365204584,1.70038
365246017,1.639904
365283722,1.660096
365321642,1.65929
365359664,1.73019
365444629,1.582701
365484525,1.401373
365523875,1.713271
365560409,1.542417
365598094,1.614122
365634785,1.673793
365673025,1.66493
365713031,1.592369
365749502,1.651234
365785522,1.67057
365826067,1.705214
365863279,1.722939
365900177,1.692323
365942439,1.642321
365981672,1.613317
366067518,1.783365
366109796,1.547251
366148824,1.30872
366187220,3.183177
366227235,1.455404
366270076,1.580284
366312482,1.643127
366355513,1.665736
366394005,1.618956
366434896,1.655262
366477603,1.70038
366521791,1.697157
366572226,1.680238
366617633,1.672987
366659318,1.633458
366751061,1.732607
366799869,1.610899
366841829,2.413554
366882277,1.006491
366926550,1.551279
366969728,1.642321
367013307,1.654456
367056555,1.60526
367098734,1.693129
367140546,1.672181
367184828,1.682655
367227135,1.685878
367270807,1.618151
367312296,1.632653
367353847,1.637487
367441555,1.57545
367483407,1.54564
367527510,3.222655
367575059,1.422321
367617239,1.606871
367663161,1.657679
367707845,1.643932
367748706,1.601231
367792694,1.654456
367834682,1.622179
367876889,1.671376
367921672,1.677821
367965166,1.645544
368006837,1.628624
368050095,1.660096
368135969,1.585924
368179907,1.361089
368222748,1.786587
368264711,1.493271
368305739,1.597203
368349515,1.655262
368393339,1.637487
368439247,1.677821
368485136,1.675404
368534649,1.72455
368583184,1.689906
368631809,1.631847
368679940,1.642321
368726257,1.686683
368770796,1.822843
368855350,1.324834
368903011,0.7357336
368950664,1.564976
368995940,1.633458
369041097,1.698769
369087016,1.614122
369130838,1.710048
369179376,1.721328
369225156,1.71891
369276699,1.661707
369323423,1.600426
369369499,1.601231
369416778,1.709242
369463736,1.601231
369511085,1.502939
369604084,1.490854
369648764,1.613317
369698695,1.690712
369748326,1.598814
369793252,1.607677
369840351,1.633458
369888988,1.65929
369936278,1.672987
369983997,1.609288
370033510,1.585118
370081193,1.656873
370130345,1.789004
370179536,1.518247
370227135,2.071898
370275226,1.19507
370363028,1.680238
370412879,1.644738
370459224,1.65929
370507875,1.662513
370556663,1.672181
370605046,1.718105
370656718,1.663319
370702639,1.646349
370750603,1.624596
370796307,1.823648
370843315,1.566587
370892236,1.401373
370939487,1.786587
370987238,1.560142
371041826,1.655262
371140605,1.631041
371191671,1.613317
371242976,1.639098
371292778,1.651234
371342519,1.616539
371391488,1.602037
371437896,1.59962
371489605,1.873651
371540057,1.563365
371592188,1.440046
371642133,1.002463
371692975,1.589146
371744872,1.677821
371798195,1.683461
371850978,1.685072
371945735,1.734219
371996942,1.689906
372048534,1.669764
372101762,1.686683
372153614,1.722939
372206963,1.712465
372258434,1.53436
372309925,3.23474
372361112,1.51583
372414620,1.596397
372466851,1.647961
372522009,1.606871
372570991,1.677821
372621400,1.719716
372678732,1.675404
372778355,1.618956
372829300,1.579478
372881126,1.876873
372933591,1.51583
372988178,2.154882
373042631,1.45057
373093766,1.596397
373147230,1.67057
373197823,1.610094
373250040,1.639904
373303888,1.681044
373357101,1.672987
373409909,1.641515
373463891,1.643932
373514106,1.643932
373609975,1.809952
373665464,1.563365
373718700,3.23474
373776888,1.54564
373833995,1.635875
373889315,1.668153
373942468,1.636681
373997170,1.632653
374053459,1.65929
374109754,1.642321
374166494,1.608482
374219938,1.627013
374273991,1.656873
374330897,1.658485
374389581,1.530332
374499834,1.57545
374559708,1.680238
374612444,1.646349
374669155,1.666541
374732236,1.704408
374789650,1.692323
374845414,1.681849
374904341,1.685072
374963323,1.652039
375052719,1.515024
375089982,1.583507
375125794,2.826967
375162450,0.9557335
375196674,1.548862
375232862,1.609288
375310538,1.636681
375345079,1.593175
375384664,1.654456
375419361,1.628624
375455744,1.65929
375494421,1.690712
375530956,1.635875
375571822,1.640709
375607378,1.642321
375643261,1.637487
375678918,1.639098
375715473,1.864788
375750564,1.639098
375786438,1.569004
375821767,1.452181
375901595,1.54564
375936719,1.628624
375970343,1.680238
376006195,1.680238
376045728,1.652845
376081598,1.654456
376119695,1.664124
376157413,1.667347
376193394,1.660096
376231183,1.621373
376268337,1.627819
376310434,1.616539
376351432,1.639904
376392326,1.712465
376431737,1.823648
376513463,1.32564
376553524,2.175024
376588710,1.482797
376630395,1.569004
376670712,1.658485
376709914,1.668153
376748424,1.610094
376787434,1.709242
376823254,1.697157
376862954,1.761611
376901496,1.758389
376945229,1.682655
376984677,1.673793
377024106,1.688295
377065015,1.681044
377152328,1.56417
377191502,1.471517
377231663,3.237963
377270390,1.518247
377314595,1.632653
377358396,1.699574
377397229,1.674598
377437997,1.634264
377478939,1.708437
377520031,1.718105
377563096,1.713271
377603878,1.703603
377645359,1.710854
377686375,1.669764
377727858,1.656873
377811256,1.701991
377851253,1.518247
377890647,1.466683
377930729,0.8961135
377969347,1.513413
378009594,1.591563
378050297,1.626207
378092313,1.596397
378135706,1.565782
378173817,1.587535
378215802,1.614928
378258347,1.646349
378298334,1.621373
378340919,1.62379
378384423,1.618956
378472531,1.826066
378519120,1.53436
378563709,1.435212
378605988,3.168675
378649733,1.495688
378693300,1.624596
378737001,1.650428
378780617,1.639098
378821096,1.668153
378866605,1.701991
378907222,1.692323
378949392,1.696352
378993496,1.673793
379036239,1.644738
379083812,1.631041
379172897,1.859954
379217389,1.542417
379260184,1.35545
379303888,1.987251
379346044,1.498911
379389098,1.610899
379432462,1.656873
379479038,1.62943
379524080,1.682655
379567043,1.660902
379612659,1.680238
379658622,1.682655
379704022,1.63507
379751913,1.638292
379795083,1.624596
379885933,1.768862
379935139,1.544028
379979421,2.887393
380024243,1.332085
380069891,1.589146
380114389,1.657679
380162615,1.686683
380210837,1.627013
380255959,1.693934
380301359,1.695546
380346088,1.721328
380391216,1.650428
380440011,1.615734
380485328,1.627819
380530249,1.618151
380621700,1.523886
380667715,1.481186
380713602,3.059858
380764521,1.553697
380811578,1.655262
380862677,1.668153
380912815,1.615734
380960216,1.675404
381007462,1.680238
381058099,1.639098
381109493,1.66493
381158343,1.645544
381208778,1.665736
381256065,1.656068
381303885,1.863983
381400883,1.374786
381449705,1.27891
381507522,1.609288
381560952,1.692323
381608575,1.658485
381660596,1.59962
381715548,1.67057
381764661,1.70602
381812843,1.691517
381864397,1.652845
381915016,1.653651
381966703,1.660902
382018166,1.730996
382068274,1.744692
382120826,1.585924
382213091,1.493271
382265176,1.639904
382315745,1.660096
382366363,1.626207
382422546,1.685072
382472282,1.663319
382521890,1.691517
382575516,1.613317
382626596,1.642321
382682365,1.637487
382734290,1.664124
382785014,1.768057
382837037,1.561753
382888195,3.241185
382937845,1.48038
383035253,1.647155
383085427,1.618956
383135393,1.666541
383185069,1.667347
383235312,1.702797
383285354,1.658485
383338025,1.614928
383387192,1.630236
383436359,1.622985
383487819,1.882513
383537520,1.551279
383591947,1.506162
383642472,1.077441
383700595,1.625402
383757704,1.704408
383854301,1.686683
383909949,1.693934
383965120,1.717299
384017452,1.674598
384069104,1.643932
384125508,1.613317
384180556,1.708437
384231300,1.592369
384284372,1.552085
384335389,2.018672
384385013,1.567393
384440324,1.613317
384493469,1.622179
384553186,1.632653
384607311,1.618151
384706122,1.655262
384762067,1.620568
384817291,1.616539
384873207,1.695546
384927691,1.693934
384980803,1.525498
385037958,1.435212
385093611,1.554502
385146617,1.645544
385201922,1.664124
385256297,1.67621
385311038,1.70038
385366478,1.72455
385424132,1.660096
385510830,1.625402
385586838,1.85507
385623099,1.614928
385656733,1.533555
385690634,1.376397
385726424,2.25962
385758710,1.454598
385792738,1.588341
385826838,1.685072
385862608,1.691517
385900600,1.65929
385932365,1.628624
385965984,1.693934
386002174,1.651234
386036058,1.672181
386072521,1.709242
386151794,1.631041
386186442,1.646349
386226647,1.664124
386265021,1.747915
386302658,1.731801
386340074,1.553697
386377308,1.300664
386412674,3.057441
386447956,1.497299
386482122,1.581089
386521291,1.627819
386556061,1.67621
386593981,1.615734
386631896,1.657679
386670263,1.688295
386753824,1.667347
386793818,1.657679
386829924,1.636681
386865439,1.627013
386903714,1.633458
386941562,1.709242
386980388,1.750332
387019212,1.53436
387057848,1.266825
387098260,2.366825
387137180,1.473129
387172126,1.588341
387212154,1.637487
387250881,1.631041
387287589,1.610094
387371801,1.602843
387409393,1.652039
387451567,1.630236
387489482,1.59398
387529424,1.612511
387569523,1.611705
387609152,1.609288
387650801,1.817203
387691108,1.455404
387730110,1.52872
387769159,3.241185
387808505,1.171705
387848167,1.519858
387890807,1.56417
387929692,1.593175
388012760,1.660096
388053374,1.699574
388090313,1.738247
388132117,1.761611
388174176,1.699574
388215913,1.685072
388257894,1.67621
388300247,1.691517
388341813,1.868011
388382822,1.674598
388425417,1.537583
388469556,1.286967
388512944,1.601231
388556953,1.642321
388597910,1.660902
388684906,1.621373
388729448,1.626207
388773997,1.710048
388826556,1.739052
388872134,1.697963
388914626,1.639098
388960509,1.780142
389010256,1.445736
389055487,1.435212
389096439,2.612607
389141535,1.42071
389186977,1.619762
389229527,1.684266
389274861,1.568199
389318671,1.688295
389405052,1.544028
389449110,1.582701
389493197,1.709242
389535786,1.722133
389580359,2.005782
389629415,1.602843
389672472,1.59398
389717070,2.115404
389764090,1.736635
389810170,1.551279
389858083,1.407013
389903405,1.597203
389947315,1.835733
389992678,1.78981
390037196,1.693129
390124633,1.628624
390169691,1.975972
390213400,1.651234
390257489,1.695546
390301194,2.260426
390344235,1.549668
390389585,1.641515
390436075,1.70602
390480384,1.655262
390524924,1.707631
390571038,1.736635
390614629,1.727773
390659826,1.719716
390703525,1.680238
390752943,1.673793
390843134,1.548862
390894088,1.687489
390941427,0.9944059
390990112,1.555308
391036235,1.621373
391080099,1.618151
391130269,1.603648
391178656,1.594786
391224335,1.624596
391271015,1.67057
391318722,1.62943
391366502,1.652039
391415549,1.857537
391464102,1.535972
391517782,1.930048
391611182,1.583507
391658514,1.674598
391705091,1.745498
391754110,1.660902
391803747,1.622985
391851987,1.60526
391900723,1.655262
391952934,1.642321
392004862,1.590758
392051567,1.596397
392100576,1.641515
392149595,1.695546
392198593,1.851847
392247413,1.56981
392296427,1.814786
392388258,1.598814
392437769,1.712465
392487403,1.766445
392535455,1.780142
392583489,1.689906
392631629,1.646349
392678887,1.654456
392726908,1.622179
392776478,1.602037
392826629,1.602037
392878637,1.619762
392927981,1.638292
392977303,1.622179
393028339,1.657679
393077673,1.658485
393176517,1.652039
393226302,1.660096
393278145,1.620568
393333152,3.218627
393392048,1.640709
393445378,1.699574
393499059,1.78417
393548815,1.780948
393600838,1.664124
393650838,1.614122
393698775,1.631847
393752090,1.601231
393801836,1.571421
393854478,1.592369
393908722,1.585118
394003272,1.581089
394057702,1.60526
394112270,1.664124
394164954,1.60526
394215844,1.407013
394266823,0.8268253
394318214,1.639904
394371381,1.726162
394424283,1.81398
394478077,1.760806
394530469,1.622985
394584039,1.609288
394634478,1.652845
394688485,1.609288
394740491,1.606065
394838502,1.627013
394888937,1.63507
394940869,1.639098
394998163,1.642321
395050695,1.62379
395105234,1.636681
395161479,2.195166
395214172,1.482797
395270728,1.65929
395325311,1.755972
395378665,1.762417
395432166,1.668153
395485498,1.622179
395540447,1.663319
395595578,1.660096
395689385,1.640709
395744090,1.631041
395801497,1.645544
395853779,1.633458
395907634,1.619762
395966541,1.651234
396054530,1.526304
396092836,3.237157
396127128,1.438434
396160840,1.651234
396197003,1.727773
396234277,1.761611
396272740,1.796255
396313055,1.755972
396347764,1.680238
396428354,1.597203
396467354,1.618151
396505569,1.622179
396551852,1.611705
396592667,1.598814
396629729,1.596397
396667796,1.587535
396710068,1.607677
396747399,1.626207
396782870,1.641515
396821623,1.654456
396860672,1.656873
396896847,1.727773
396935869,1.613317
396973346,1.616539
397056687,1.137867
397094456,1.592369
397134103,1.673793
397170578,1.722939
397208906,1.747109
397252666,1.764028
397289386,1.661707
397327600,1.611705
397369581,1.641515
397409256,1.646349
397450824,1.637487
397489884,1.590758
397525657,1.595592
397564758,1.589952
397603079,1.612511
397687116,1.632653
397726023,1.782559
397763087,1.739858
397800534,1.567393
397837553,1.342559
397873939,3.134836
397911743,1.492465
397949519,1.597203
397987038,1.677015
398023186,1.747109
398061693,1.772891
398100518,1.735024
398138921,1.65929
398176784,1.672181
398221122,1.690712
398306124,1.626207
398350783,1.585924
398393887,1.589146
398435475,1.615734
398476153,1.631847
398515272,1.735024
398559016,1.684266
398602694,1.620568
398640976,1.780142
398681430,1.03474
398721714,1.573838
398760202,1.645544
398802871,1.698769
398845569,1.740664
398892709,1.758389
398981279,1.674598
399023176,1.666541
399064275,1.639904
399106149,1.593175
399148396,1.59398
399189518,1.59398
399231924,1.610094
399276985,1.749526
399322195,1.572227
399362709,1.584312
399405178,3.229906
399449930,1.334502
399492767,1.636681
399536164,1.697963
399579698,1.728579
399663229,1.679432
399705658,1.661707
399748908,1.660096
399791766,1.652845
399833532,1.631847
399877371,1.592369
399919153,1.617345
399963080,1.620568
400005068,1.731801
400048950,1.567393
400092387,1.53436
400135017,3.233934
400178625,1.380426
400221010,1.585924
400265646,1.668153
400353075,1.706825
400398289,1.668153
400441379,1.59398
400489005,1.668958
400535224,1.665736
400580189,1.639904
400625390,1.633458
400668610,1.62379
400714385,1.684266
400757415,1.786587
400800008,1.537583
400847982,1.516635
400894213,0.9106157
400938718,1.595592
400984779,1.681044
401072031,1.697157
401120651,1.714882
401167891,1.664124
401212386,1.718105
401256154,1.67621
401302772,1.632653
401346977,1.614122
401394052,1.619762
401439471,1.674598
401488542,1.798673
401535681,1.537583
401581039,1.606065
401625928,0.907393
401675364,1.595592
401720249,1.662513
401813598,1.696352
401856977,1.674598
401902482,1.681044
401951887,1.716493
401998005,1.668153
402044618,1.612511
402094850,1.645544
402143194,1.643127
402193301,1.793838
402243528,1.524692
402292507,1.34417
402340678,1.394122
402387729,1.537583
402433586,1.646349
402481447,1.691517
402569833,1.710854
402615524,1.647155
402664947,1.672181
402712429,1.691517
402760390,1.631041
402812243,1.595592
402864772,1.609288
402917347,1.726162
402969422,1.508579
403018211,1.472323
403067857,1.779336
403119312,1.564976
403170568,1.650428
403222431,1.695546
403271449,1.656873
403366225,1.662513
403419307,1.70038
403473758,1.644738
403534849,1.620568
403590316,1.598814
403640077,1.73019
403694288,1.526304
403751346,1.32564
403802252,0.8542184
403853050,1.583507
403907942,1.639904
403960707,1.687489
404011466,1.665736
404065075,1.652845
404117204,1.693934
404215072,1.628624
404265849,1.631847
404320015,1.608482
404370867,1.785782
404423861,1.53436
404481182,1.393317
404532666,1.025827
404583569,1.586729
404638868,1.664124
404691535,1.635875
404747780,1.657679
404801193,1.63507
404853510,1.664124
404907022,1.609288
404961955,1.609288
405060687,1.640709
405113986,1.848624
405165543,1.511801
405215787,2.034786
405267434,1.303886
405319160,1.610899
405372448,1.678627
405424802,1.664124
405476891,1.680238
405529171,1.651234
405582400,1.683461
405633781,1.618956
405688422,1.593175
405742092,1.618151
405800733,1.704408
405899797,1.587535
405958759,3.196068
406014798,1.548862
406070648,1.684266
406122622,1.72455
406175922,1.712465
406232459,1.639904
406288850,1.684266
406343355,1.650428
406398003,1.631847
406452637,1.602843
406536253,1.781753
406570625,1.734219
406610123,1.557725
406647154,1.418293
406727713,1.556919
406762639,1.651234
406798802,1.695546
406835524,1.697963
406870215,1.682655
406905175,1.726162
406942272,1.703603
406982213,1.722133
407016215,1.758389
407050257,1.709242
407088435,1.66493
407125114,1.614122
407161821,1.593175
407198918,1.600426
407236298,1.763223
407318363,1.550474
407355174,1.823648
407391530,0.7752118
407425964,1.543223
407463389,1.614928
407498633,1.677821
407536441,1.685072
407571800,1.647155
407607508,1.645544
407647067,1.637487
407683339,1.652845
407718519,1.661707
407754509,1.62943
407789752,1.615734
407827890,1.603648
407908115,1.602843
407947026,1.755166
407990944,1.502133
408032068,1.552085
408072285,2.873697
408111148,1.109668
408149979,1.588341
408188940,1.67621
408225153,1.661707
408260912,1.664124
408301964,1.655262
408341721,1.689101
408381243,1.634264
408420425,1.685072
408458370,1.691517
408544505,1.651234
408586248,1.630236
408625051,1.66493
408663892,1.731801
408702869,1.789004
408740721,1.581089
408781806,1.321611
408820512,2.348295
408861511,1.516635
408902121,1.657679
408943070,1.679432
408982343,1.712465
409024273,1.67621
409065603,1.637487
409105260,1.647155
409188298,1.70602
409227566,1.665736
409272891,1.614928
409312569,1.589952
409352774,1.594786
409394820,1.677015
409436724,1.651234
409478631,1.521469
409520595,1.686683
409563053,1.000851
409605816,1.584312
409646572,1.671376
409686817,1.678627
409726199,1.682655
409766776,1.719716
409849378,1.698769
409892332,1.715688
409931150,1.70602
409972496,1.650428
410018009,1.628624
410064071,1.618151
410109098,1.703603
410152855,1.677821
410195333,1.515024
410238439,1.775308
410283522,1.033129
410328304,1.584312
410373731,1.688295
410415311,1.695546
410458432,1.615734
410551972,1.640709
410598498,1.696352
410651827,1.667347
410699113,1.633458
410743924,1.614928
410788831,1.652845
410837875,1.684266
410882065,1.665736
410924511,1.571421
410971050,2.607773
411017904,1.333696
411062161,1.622179
411108825,1.679432
411154153,1.698769
411202590,1.689906
411289206,1.656873
411335415,1.684266
411380091,1.680238
411426545,1.597203
411476277,1.589146
411522852,1.59398
411569554,1.677821
411618189,1.639904
411664382,1.553697
411716573,3.237157
411765129,1.486825
411810933,1.600426
411858160,1.690712
411904832,1.726162
411951910,1.726162
412044726,1.67057
412090354,1.671376
412135645,1.668153
412182931,1.668153
412230163,1.669764
412276999,1.627819
412326595,1.868011
412372346,1.556919
412416692,1.56417
412464194,2.942229
412511836,1.530332
412559102,1.646349
412604187,1.67621
412656828,1.622985
412706734,1.680238
412800572,1.681044
412849143,1.653651
412899470,1.631041
412947980,1.661707
412996699,1.653651
413046844,1.864788
413098567,1.556113
413145367,1.425544
413193628,1.370758
413240550,1.527915
413291176,1.657679
413339699,1.685878
413393534,1.643932
413443631,1.666541
413493088,1.671376
413586570,1.66493
413636128,1.620568
413685150,1.606065
413733740,1.615734
413780926,1.814786
413832218,1.502939
413885106,2.534456
413933235,1.33128
413983538,1.611705
414036031,1.664124
414087251,1.613317
414138670,1.613317
414189936,1.633458
414242748,1.667347
414295854,1.677015
414388622,1.653651
414437295,1.622985
414484650,1.779336
414536560,1.547251
414586211,1.395734
414638242,0.8542184
414690586,1.602843
414742447,1.685072
414796613,1.717299
414847311,1.698769
414899962,1.693934
414950418,1.677821
415001189,1.689906
415053661,1.636681
415104782,1.624596
415208103,1.731801
415263917,1.519052
415317448,1.283745
415372355,0.9799039
415425444,1.602037
415478967,1.66493
415532507,1.697963
415582777,1.683461
415639645,1.639904
415690110,1.683461
415744111,1.647155
415799694,1.584312
415851967,1.614928
415910174,1.725356
415967248,1.569004
416062810,3.228295
416114061,1.573033
416168360,1.664124
416220960,1.717299
416273811,1.632653
416328813,1.667347
416383935,1.643932
416438627,1.714076
416493616,1.678627
416546939,1.644738
416604408,1.661707
416659005,1.868011
416713830,1.554502
416766210,3.237157
416819535,1.524692
416918729,1.710854
416974785,1.652039
417060889,1.673793
417094277,1.656873
417131361,1.656873
417165851,1.620568
417201678,1.606065
417235826,1.638292
417269957,1.606065
417303794,1.618151
417339502,1.715688
417374827,1.813175
417407225,1.544834
417443655,1.524692
417475545,2.632749
417550131,1.538389
417589998,1.631847
417628085,1.672987
417667954,1.65929
417704480,1.627819
417740497,1.67621
417778134,1.645544
417816510,1.705214
417853941,1.714882
417891982,1.653651
417927956,1.632653
417964496,1.615734
418002380,1.600426
418042680,1.652039
418091126,1.851041
418177222,1.261991
418213817,2.827773
418253015,1.513413
418296787,1.611705
418335380,1.688295
418371338,1.696352
418410545,1.626207
418449948,1.664124
418487605,1.672987
418527987,1.661707
418566823,1.701991
418608161,1.67621
418647182,1.657679
418688271,1.663319
418725902,1.655262
418805334,1.863177
418846889,1.551279
418884844,1.564976
418924528,3.238769
418967866,1.437629
419007282,1.581089
419052546,1.687489
419094249,1.696352
419133152,1.695546
419173552,1.712465
419214751,1.686683
419255394,1.677015
419294828,1.681849
419333797,1.666541
419371688,1.634264
419453244,1.608482
419492171,1.600426
419531447,1.705214
419570853,1.642321
419610038,1.530332
419646859,1.37398
419687860,0.8381048
419729110,1.513413
419771904,1.583507
419813662,1.608482
419857947,1.618151
419902891,1.639904
419948604,1.642321
419993218,1.677015
420036837,1.697963
420122309,1.652039
420162638,1.66493
420206137,1.626207
420248780,1.643127
420289200,1.72455
420331739,1.652039
420374338,1.586729
420417285,2.486922
420460960,1.197487
420509452,1.610094
420553943,1.664124
420598634,1.71891
420642829,1.665736
420685118,1.696352
420729435,1.65929
420814220,1.681044
420854967,1.615734
420899374,1.618956
420945917,1.62943
420986554,1.637487
421030308,1.735024
421075623,1.674598
421120043,1.589146
421164412,2.657725
421209212,1.157203
421252302,1.62943
421296862,1.696352
421341117,1.712465
421386020,1.678627
421430921,1.722133
421519286,1.719716
421562260,1.682655
421607306,1.632653
421648974,1.608482
421693938,1.586729
421741607,1.620568
421785769,1.839762
421828917,1.555308
421871790,1.375592
421918132,1.921186
421964111,1.540806
422010879,1.660096
422068176,1.661707
422116042,1.601231
422164386,1.678627
422254727,1.675404
422301480,1.625402
422345939,1.595592
422388541,1.600426
422436414,1.595592
422481992,1.709242
422529471,1.734219
422575556,1.558531
422621408,1.98
422670387,1.216823
422720853,1.602843
422767627,1.664124
422812104,1.667347
422858912,1.652845
422906803,1.654456
422997427,1.673793
423045632,1.650428
423094114,1.606065
423141308,1.607677
423188655,1.594786
423235499,1.857537
423285923,1.577061
423334546,1.34417
423383602,0.8211353
423428652,1.573033
423475431,1.637487
423527299,1.650428
423574417,1.657679
423623523,1.646349
423672506,1.628624
423765000,1.668153
423816195,1.627819
423864968,1.615734
423914903,1.716493
423963037,1.764834
424012720,1.562559
424062312,3.227489
424112254,1.464266
424159731,1.619762
424209090,1.693934
424257604,1.655262
424306295,1.660096
424359532,1.663319
424412794,1.686683
424466808,1.685878
424561083,1.596397
424611223,1.671376
424663142,1.737441
424715030,1.535972
424766685,3.24038
424821351,1.529526
424871762,1.627013
424922273,1.693934
424976834,1.643932
425030883,1.672181
425093399,1.635875
425149425,1.653651
425199926,1.621373
425255050,1.589146
425313941,1.71891
425409710,1.549668
425462604,3.238769
425516886,1.473935
425569721,1.639904
425622541,1.697963
425677100,1.646349
425730759,1.652845
425783781,1.672181
425839239,1.651234
425891646,1.626207
425945825,1.631041
425998515,1.631847
426052878,1.852653
426111314,1.551279
426163713,2.695642
426258143,1.619762
426313682,1.697963
426370536,1.67621
426428143,1.686683
426484189,1.689906
426537519,1.674598
426592281,1.616539
426646862,1.612511
426697971,1.627819
426752077,1.863983
426807048,1.554502
426860014,1.638292
426912505,1.067773
426965255,1.600426
427018816,1.673793
427114866,1.641515
427168237,1.671376
427219864,1.721328
427274931,1.692323
427329993,1.647155
427386948,1.618956
427442374,1.737441
427501871,1.538389
427595932,1.289384
427632365,1.508579
427669313,1.634264
427706398,1.666541
427739795,1.660902
427776733,1.639904
427815003,1.620568
427890323,1.635875
427926306,1.67621
427962170,1.665736
427999543,1.667347
428035353,1.602037
428075910,1.639098
428110970,1.635875
428147117,1.813175
428183802,1.689101
428219304,1.573838
428258507,1.423127
428293043,2.483699
428327918,1.483603
428366937,1.586729
428406959,1.660096
428483700,1.65929
428519989,1.677821
428558535,1.697963
428597691,1.656873
428635136,1.672987
428673331,1.643932
428712494,1.660902
428750409,1.626207
428788181,1.640709
428826440,1.626207
428862667,1.774502
428901171,1.614928
428934714,1.53436
428970273,1.328862
429006706,2.411138
429086593,1.614928
429124424,1.643127
429160291,1.67057
429198410,1.62379
429235217,1.645544
429272435,1.671376
429311551,1.652039
429349011,1.695546
429384318,1.677015
429434263,1.609288
429475241,1.621373
429514136,1.637487
429551744,1.710048
429591520,1.863983
429629183,1.600426
429709462,3.231518
429751268,1.496493
429789905,1.602843
429830795,1.691517
429871292,1.717299
429910574,1.682655
429953093,1.737441
429995843,1.680238
430034705,1.710048
430073893,1.686683
430114949,1.644738
430156537,1.627819
430196939,1.632653
430237796,1.652845
430280866,1.751943
430365638,1.563365
430407421,2.382133
430446635,1.033934
430488794,1.550474
430530995,1.652039
430575121,1.67621
430613760,1.637487
430653892,1.669764
430699020,1.647155
430739711,1.668958
430782278,1.660902
430826455,1.628624
430870652,1.631041
430914879,1.609288
430956018,1.625402
431041150,1.544028
431081848,1.477157
431124731,2.898723
431167062,1.508579
431210309,1.602843
431251289,1.661707
431294956,1.681044
431335228,1.685878
431379172,1.721328
431426092,1.696352
431470375,1.715688
431516501,1.70038
431559933,1.671376
431603310,1.66493
431646455,1.713271
431735725,1.577867
431781549,1.332085
431829067,0.6495262
431871617,1.566587
431914535,1.639098
431960787,1.671376
432007960,1.653651
432063551,1.624596
432113904,1.625402
432157486,1.677015
432203096,1.640709
432253222,1.631041
432299522,1.600426
432344011,1.633458
432393165,1.871234
432482752,1.37398
432529106,1.497299
432576995,1.511801
432624958,1.637487
432674693,1.684266
432723701,1.652845
432768672,1.710048
432817180,1.710854
432864078,1.706825
432911317,1.690712
432963181,1.655262
433010805,1.643932
433058176,1.710048
433108050,1.695546
433156709,1.511801
433252964,1.469906
433302582,1.577867
433349326,1.671376
433397484,1.653651
433446634,1.643932
433494195,1.677821
433540927,1.668153
433588969,1.682655
433634370,1.642321
433680504,1.580284
433726716,1.628624
433775395,1.761611
433824145,1.564976
433870727,1.580284
433917409,3.225878
434009568,1.652039
434056352,1.672181
434104762,1.65929
434153550,1.666541
434206508,1.660902
434259921,1.685878
434310039,1.671376
434360264,1.627819
434408669,1.611705
434456151,1.619762
434508604,1.782559
434559715,1.548862
434606438,2.357157
434655435,1.231325
434704306,1.598814
434797107,1.687489
434845176,1.681044
434899519,1.639098
434951277,1.65929
435000197,1.660902
435050393,1.65929
435101204,1.652845
435152971,1.656873
435202897,1.892987
435252179,1.557725
435305414,1.989668
435359667,1.271659
435409054,1.647155
435459431,1.721328
435514005,1.650428
435609317,1.691517
435660387,1.716493
435711467,1.706825
435762920,1.625402
435814224,1.614122
435865499,1.677821
435917970,1.502939
435969788,1.47474
436022510,1.184596
436071458,1.566587
436122302,1.569004
436173302,1.661707
436225713,1.631847
436277869,1.662513
436328145,1.723745
436423734,1.684266
436476720,1.619762
436528176,1.718105
436581633,1.668153
436631116,1.542417
436685134,3.228295
436747744,1.547251
436802994,1.640709
436857084,1.667347
436911082,1.646349
436964984,1.614928
437019170,1.679432
437070093,1.679432
437127463,1.639098
437180001,1.633458
437276056,1.529526
437330579,1.315972
437384829,0.9363974
437442002,1.590758
437498773,1.660902
437553654,1.66493
437605824,1.704408
437660045,1.672987
437715555,1.697963
437769164,1.667347
437824772,1.63507
437882069,1.642321
437937302,1.745498
437990828,1.569004
438075177,1.106445
438152057,1.650428
438187742,1.680238
438221350,1.67621
438254833,1.628624
438293690,1.653651
438327605,1.647155
438364437,1.673793
438399982,1.693934
438437615,1.67057
438475138,1.652039
438511509,1.643932
438548014,1.618151
438582990,1.606065
438617422,1.796255
438653051,1.63507
438728458,1.556919
438762750,1.561753
438801359,1.50455
438836458,1.603648
438873822,1.668153
438912598,1.664124
438951304,1.639098
438990049,1.689101
439028078,1.681044
439063461,1.666541
439101588,1.711659
439140836,1.718105
439179894,1.693129
439220882,1.627819
439256859,1.610094
439336564,1.85507
439376590,1.564976
439415692,1.459432
439464481,1.506967
439508431,1.544028
439544470,1.618956
439586010,1.685072
439628452,1.650428
439667693,1.622985
439704876,1.684266
439745848,1.660902
439785121,1.701991
439826166,1.680238
439867056,1.686683
439908124,1.618151
439990485,1.602843
440031005,1.818009
440070670,1.581089
440112067,1.551279
440150380,2.208862
440188780,1.000851
440230811,1.551279
440271025,1.643932
440311776,1.691517
440354877,1.650428
440395495,1.699574
440440818,1.679432
440482106,1.699574
440522190,1.70038
440563716,1.672181
440646786,1.636681
440689356,1.652845
440729439,1.714882
440768704,1.747915
440807288,1.544834
440847399,1.393317
440885371,1.692323
440927095,1.548057
440970945,1.668153
441010000,1.681044
441047658,1.685878
441089441,1.630236
441131405,1.712465
441174911,1.667347
441217152,1.70038
441304114,1.641515
441349487,1.62943
441392875,1.622985
441436971,1.706825
441479390,1.690712
441520289,1.519052
441564642,1.82526
441608784,0.9992401
441652084,1.569004
441694266,1.672181
441736654,1.687489
441779575,1.647155
441822660,1.672181
441870530,1.671376
441913848,1.712465
442002217,1.612511
442044136,1.612511
442086781,1.627013
442131533,1.627819
442175411,1.876068
442219653,1.526304
442266113,1.437629
442313368,1.95583
442355811,1.515024
442401851,1.603648
442449685,1.66493
442496002,1.661707
442540009,1.63507
442585138,1.595592
442631515,1.627013
442719107,1.587535
442764100,1.612511
442807787,1.586729
442851765,1.60526
442896997,1.827677
442940913,1.554502
442984134,1.567393
443027436,3.229906
443072650,1.498105
443120618,1.639904
443165160,1.689101
443211928,1.684266
443256039,1.72455
443300730,1.715688
443347160,1.70038
443435458,1.727773
443480147,1.664124
443533101,1.645544
443581814,1.650428
443630036,1.822843
443677305,1.52872
443724775,1.532749
443772166,2.950286
443816327,1.477157
443864864,1.635875
443910845,1.731801
443957848,1.677821
444004689,1.662513
444052826,1.67621
444102692,1.652039
444192422,1.627013
444238872,1.60526
444285111,1.635875
444333529,1.650428
444380380,1.88493
444426241,1.531943
444475227,1.501328
444524068,0.9815151
444569891,1.564976
444617943,1.636681
444667799,1.665736
444717219,1.627013
444766416,1.634264
444812989,1.600426
444860377,1.622179
444957247,1.612511
445005037,1.622179
445054921,1.652039
445104589,1.872039
445154249,1.556113
445205722,1.76564
445256152,1.1
445305327,1.602843
445353907,1.663319
445404046,1.657679
445455837,1.660096
445504152,1.673793
445552804,1.714882
445604048,1.696352
445651878,1.668153
445747076,1.639904
445801790,1.730996
445854580,1.740664
445907532,1.562559
445958048,3.236351
446007784,1.540806
446058306,1.621373
446111549,1.666541
446166192,1.652039
446221012,1.699574
446271960,1.667347
446322654,1.689906
446377803,1.632653
446434002,1.660096
446496442,1.66493
446595302,1.708437
446647316,1.568199
446701448,3.129197
446759732,1.574644
446813191,1.656873
446866241,1.67621
446922546,1.637487
446975801,1.619762
447030798,1.663319
447087594,1.646349
447141180,1.632653
447196762,1.62943
447253024,1.611705
447305353,1.842179
447362481,1.523886
447459517,1.154786
447513988,1.610899
447571573,1.67621
447624435,1.671376
447678907,1.693129
447735655,1.680238
447791512,1.698769
447850776,1.660096
447905994,1.657679
447959947,1.681044
448015375,1.868817
448071936,1.580284
448124672,1.45057
448180348,1.086303
448233609,1.652039
448330176,1.672181
448385238,1.677821
448438538,1.660096
448492509,1.70038
448547249,1.621373
448601004,1.598814
448686747,1.606065
448721739,1.72455
448756772,1.773697
448792251,1.547251
448831617,1.363507
448872458,2.891472
448909684,1.501328
448946159,1.614928
448981701,1.679432
449058333,1.668153
449094837,1.640709
449133264,1.652039
449167520,1.665736
449201930,1.662513
449237573,1.65929
449275344,1.655262
449310991,1.615734
449354104,1.626207
449390642,1.613317
449427152,1.666541
449462649,1.859954
449499038,1.527915
449537237,1.581895
449573889,2.991375
449651555,1.587535
449690932,1.660096
449731306,1.712465
449766975,1.681044
449804591,1.675404
449843151,1.674598
449880268,1.652039
449917373,1.687489
449957433,1.672987
449995407,1.646349
450033492,1.614122
450071701,1.609288
450107190,1.59398
450145941,1.650428
450182477,1.872039
450264574,1.549668
450301826,3.233934
450338739,1.15398
450376846,1.59962
450417758,1.679432
450455285,1.710854
450494626,1.708437
450533994,1.704408
450571380,1.710048
450610717,1.679432
450648586,1.697157
450687917,1.706825
450738460,1.639904
450779875,1.636681
450821477,1.626207
450904405,1.893793
450945160,1.569004
450985754,1.542417
451023291,3.226683
451065865,1.316777
451103511,1.618151
451144702,1.689101
451184620,1.719716
451223190,1.681044
451266133,1.710854
451309100,1.652039
451347533,1.710854
451387965,1.679432
451428808,1.655262
451468835,1.595592
451554589,1.607677
451596183,1.785782
451638152,1.54
451679384,1.563365
451721413,2.99621
451765562,1.315972
451807103,1.585924
451850581,1.650428
451890028,1.655262
451930477,1.643932
451976922,1.646349
452017950,1.650428
452060885,1.66493
452102928,1.697157
452147577,1.636681
452233736,1.637487
452277303,1.751943
452320023,1.767251
452361807,1.564976
452405122,1.458627
452448623,0.6881987
452492264,1.547251
452533341,1.631041
452577255,1.660096
452619482,1.690712
452663652,1.691517
452711172,1.683461
452757465,1.690712
452802602,1.67621
452847663,1.618956
452932766,1.608482
452976404,1.695546
453022354,1.697157
453068518,1.542417
453116407,2.649668
453159295,1.150758
453203389,1.607677
453249924,1.658485
453298669,1.688295
453355225,1.637487
453405487,1.634264
453451751,1.655262
453498115,1.652845
453548512,1.59962
453595137,1.589952
453684041,1.703603
453732178,1.558531
453778735,1.562559
453825460,3.225878
453873712,1.518247
453923430,1.610899
453972145,1.677015
454021131,1.630236
454068336,1.652845
454117386,1.668153
454164827,1.710854
454212582,1.70602
454263536,1.692323
454311257,1.719716
454358864,1.769668
454452537,1.561753
454500137,3.069526
454552283,1.478769
454602134,1.622179
454649229,1.693129
454697460,1.680238
454747054,1.697157
454795363,1.669764
454843369,1.711659
454888989,1.691517
454935656,1.643932
454981026,1.627013
455027336,1.637487
455074680,1.839762
455123705,1.56417
455213850,0.9122271
455264162,1.540806
455312034,1.608482
455362538,1.67057
455409495,1.632653
455462855,1.618151
455516440,1.643932
455568231,1.668153
455617972,1.611705
455667478,1.598814
455715178,1.690712
455767779,1.706825
455817907,1.53436
455865788,3.236351
455915813,1.481186
456006463,1.671376
456057149,1.635875
456106171,1.62943
456162321,1.667347
456213087,1.682655
456263865,1.652845
456312330,1.665736
456363265,1.63507
456415576,1.768862
456466390,1.547251
456517799,1.455404
456572910,0.7437903
456635246,1.603648
456683784,1.682655
456734447,1.679432
456832403,1.65929
456884341,1.660902
456936666,1.665736
456988267,1.632653
457042096,1.59962
457094526,1.697963
457146008,1.593175
457196507,1.539194
457248494,3.159007
457301223,1.548057
457350450,1.619762
457403481,1.693129
457454466,1.669764
457507378,1.685072
457560561,1.721328
457653829,1.627819
457707649,1.626207
457758944,1.650428
457812630,1.893793
457866249,1.538389
457915895,1.460238
457968459,1.111279
458030023,1.595592
458084577,1.67621
458140518,1.641515
458194738,1.653651
458249131,1.654456
458300257,1.677821
458351383,1.609288
458407856,1.582701
458504190,1.703603
458558361,1.595592
458613086,1.523081
458665578,1.647155
458721335,1.568199
458779663,1.646349
458834936,1.680238
458889198,1.70038
458944416,1.65929
458998121,1.722133
459053917,1.685878
459109837,1.632653
459195956,1.613317
459229141,1.709242
459266418,1.737441
459345696,1.384454
459383250,1.786587
459414346,1.491659
459447962,1.59398
459486694,1.641515
459522774,1.690712
459558984,1.668153
459594822,1.655262
459629938,1.650428
459667603,1.651234
459702370,1.693934
459737348,1.674598
459770563,1.653651
459807153,1.640709
459843872,1.635875
459921018,1.646349
459955424,1.722939
459994426,1.739052
460029735,1.566587
460067299,1.382037
460106214,3.19929
460144245,1.515024
460182041,1.622985
460219383,1.667347
460256125,1.695546
460293047,1.653651
460331457,1.667347
460371472,1.677015
460412559,1.671376
460449470,1.67621
460530370,1.654456
460571550,1.652039
460612167,1.631041
460661162,1.664124
460705209,1.711659
460744037,1.753555
460784184,1.532749
460828713,1.498911
460869017,0.7252598
460908360,1.512607
460950850,1.608482
460990398,1.684266
461029893,1.696352
461071028,1.677015
461112265,1.672181
461196013,1.673793
461237201,1.672181
461274567,1.677821
461314614,1.67057
461353097,1.627819
461393423,1.62379
461437679,1.611705
461475823,1.847819
461515927,1.527109
461559645,1.560142
461599486,3.233934
461642745,1.356255
461684305,1.634264
461724481,1.673793
461765241,1.693934
461852821,1.637487
461893086,1.611705
461935776,1.647155
461975228,1.618956
462015099,1.602843
462056644,1.569004
462095536,1.586729
462135968,1.615734
462178269,1.625402
462218371,1.78417
462260287,1.596397
462302291,1.626207
462344167,2.885781
462386316,1.174122
462432597,1.652845
462522337,1.718105
462565884,1.665736
462610295,1.692323
462652044,1.677821
462693251,1.710854
462736639,1.698769
462781143,1.667347
462822210,1.62943
462862664,1.650428
462904998,1.63507
462951240,1.767251
462995394,1.579478
463043256,1.549668
463088801,3.235546
463131319,1.467489
463216094,1.685072
463260726,1.697157
463304909,1.646349
463348709,1.668153
463390167,1.621373
463437940,1.641515
463486401,1.635875
463527886,1.639904
463571590,1.618956
463619144,1.616539
463664019,1.672987
463709026,1.805118
463754137,1.524692
463799549,1.406207
463844555,0.7067292
463933443,1.650428
463978467,1.703603
464023669,1.681044
464069752,1.656873
464112276,1.628624
464158524,1.679432
464203025,1.67621
464250702,1.640709
464298003,1.615734
464341877,1.639098
464385590,1.632653
464429212,1.748721
464472898,1.582701
464519765,1.566587
464563386,3.24038
464653528,1.608482
464708903,1.679432
464756712,1.67057
464807292,1.712465
464852625,1.66493
464900157,1.678627
464946792,1.704408
464991100,1.631847
465040654,1.655262
465086719,1.59398
465134715,1.619762
465184317,1.776919
465230756,1.56417
465282116,1.548057
465333588,2.272561
465423254,1.636681
465468976,1.717299
465516466,1.662513
465564329,1.693934
465613412,1.729384
465662575,1.727773
465708414,1.712465
465756150,1.669764
465808323,1.690712
465854576,1.650428
465904322,1.867205
465951813,1.537583
465999199,1.461044
466051743,1.009714
466099576,1.555308
466191991,1.627819
466241711,1.596397
466291395,1.640709
466341137,1.677015
466389320,1.706825
466438935,1.661707
466487499,1.613317
466534643,1.570616
466584884,1.608482
466635868,1.798673
466686302,1.560142
466737805,2.992181
466787267,1.477963
466836874,1.579478
466890050,1.641515
466986261,1.679432
467039415,1.65929
467091765,1.665736
467142410,1.645544
467193137,1.618151
467246517,1.627013
467299644,1.695546
467351871,1.697963
467402138,1.556919
467453793,3.237157
467508967,1.554502
467563709,1.667347
467627101,1.668153
467684128,1.663319
467735490,1.60526
467833686,1.622179
467894469,1.588341
467947618,1.634264
468000911,1.650428
468055835,1.772891
468110904,1.562559
468164532,3.202513
468219833,1.549668
468275221,1.628624
468329194,1.689906
468385430,1.683461
468437910,1.679432
468493598,1.729384
468546011,1.71891
468600433,1.65929
468703564,1.651234
468758118,1.850236
468812667,1.560142
468870933,3.241185
468926805,1.563365
468987131,1.664124
469042423,1.693934
469096431,1.654456
469151871,1.67621
469206530,1.697157
469261329,1.695546
469318044,1.619762
469370554,1.612511
469423912,1.656873
469478922,1.773697
469575816,2.639194
469631474,1.482797
469687880,1.667347
469771573,1.643932
469805797,1.593175
469839948,1.687489
469876175,1.655262
469916857,1.692323
469955172,1.675404
469991835,1.664124
470029237,1.631041
470064875,1.640709
470097737,1.608482
470134821,1.747915
470172070,1.850236
470251458,1.415876
470287852,3.237963
470324376,1.35545
470362126,1.577867
470399553,1.639098
470441563,1.681849
470479954,1.633458
470516238,1.663319
470552511,1.661707
470589930,1.658485
470628098,1.69474
470663815,1.678627
470699063,1.666541
470738776,1.610094
470778903,1.590758
470859110,1.763223
470896759,1.627013
470935107,1.566587
470972037,1.477963
471009230,1.365924
471048261,1.560948
471087937,1.666541
471125933,1.715688
471164154,1.714882
471202547,1.672987
471239272,1.692323
471277916,1.630236
471314309,1.667347
471351200,1.672181
471388307,1.635875
471470414,1.613317
471511335,1.626207
471548848,1.696352
471588283,1.71891
471625533,1.560948
471664986,1.378009
471703630,1.813175
471739621,1.531138
471777897,1.647155
471825437,1.674598
471866880,1.626207
471908493,1.597203
471949093,1.697157
471991339,1.697157
472032084,1.727773
472114757,1.666541
472157459,1.642321
472196598,1.666541
472239340,1.841373
472280229,1.552085
472318743,1.531943
472361696,2.591659
472405901,1.216017
472447204,1.600426
472486470,1.646349
472527236,1.673793
472566367,1.610094
472608418,1.655262
472650597,1.667347
472691635,1.666541
472776826,1.660096
472819024,1.609288
472861562,1.597203
472904136,1.697157
472944555,1.777725
472984856,1.529526
473030303,1.334502
473072902,0.7639322
473114918,1.553697
473157668,1.632653
473200666,1.672181
473245228,1.652845
473288750,1.638292
473331401,1.684266
473371463,1.669764
473454422,1.656873
473497788,1.62379
473541182,1.62943
473582277,1.651234
473629130,1.755166
473669479,1.693129
473710818,1.503745
473758060,2.367631
473803869,1.22488
473849776,1.611705
473896489,1.661707
473940030,1.684266
473983433,1.616539
474029461,1.704408
474073927,1.702797
474165133,1.686683
474208824,1.621373
474252863,1.613317
474300678,1.603648
474349296,1.653651
474404407,1.839762
474453670,1.519858
474497120,1.535972
474544567,0.9799039
474596076,1.610094
474641721,1.661707
474688192,1.63507
474736684,1.60526
474783908,1.668958
474830531,1.682655
474921416,1.661707
474969799,1.624596
475017122,1.589952
475065404,1.604454
475110042,1.677015
475157383,1.755972
475202218,1.588341
475249969,2.207251
475301957,1.263603
475347950,1.632653
475394729,1.688295
475445008,1.638292
475491311,1.658485
475541507,1.643127
475592670,1.714882
475682848,1.669764
475730194,1.661707
475779540,1.626207
475824602,1.635875
475872631,1.840568
475919118,1.482797
475965785,1.461849
476013897,2.154882
476059344,1.56417
476108209,1.643932
476157153,1.653651
476205621,1.598814
476254116,1.595592
476301867,1.612511
476349754,1.631041
476447477,1.571421
476499421,1.568199
476551230,1.561753
476602443,1.678627
476653623,1.587535
476700338,1.571421
476752795,3.095358
476804378,1.584312
476852141,1.698769
476902146,1.692323
476952061,1.686683
477003374,1.73019
477052311,1.716493
477106680,1.717299
477158277,1.695546
477252105,1.63507
477302393,1.610899
477352330,1.87929
477404519,1.560948
477455229,1.551279
477504510,1.070996
477559475,1.637487
477615833,1.716493
477665129,1.586729
477716603,1.610094
477769811,1.633458
477820538,1.688295
477871619,1.686683
477923876,1.710048
477977390,1.703603
478073061,1.923603
478125313,1.606065
478177699,1.956635
478230450,1.398151
478281179,1.618151
478329238,1.701991
478382120,1.613317
478435178,1.650428
478487808,1.624596
478542459,1.674598
478593789,1.664124
478647229,1.59962
478698332,1.560142
478751851,1.63507
478805355,1.72455
478898841,2.022701
478951015,1.32564
479010671,1.602843
479067553,1.695546
479124670,1.660096
479178614,1.673793
479231896,1.677015
479283901,1.70602
479334715,1.695546
479389953,1.66493
479441761,1.622985
479496567,1.743081
479552711,1.561753
479607940,1.408624
479664597,0.7494301
479764710,1.684266
479819784,1.642321
479874872,1.673793
479930081,1.638292
479985469,1.679432
480040142,1.641515
480094922,1.59962
480148347,1.596397
480203736,1.569004
480291705,1.517441
480327410,1.505356
480360829,1.702797
480394139,1.288579
480432480,1.536777
480466363,1.577867
480543746,1.689906
480579319,1.672987
480616940,1.708437
480654847,1.70038
480688233,1.715688
480722548,1.702797
480757177,1.713271
480791258,1.726967
480827709,1.67621
480864221,1.645544
480897554,1.66493
480934426,1.684266
480968709,1.892987
481003875,1.564976
481042754,1.557725
481127561,1.065356
481166249,1.574644
481203164,1.606871
481239378,1.672987
481275820,1.660902
481314658,1.606065
481352925,1.665736
481392890,1.650428
481429651,1.689906
481466837,1.678627
481506940,1.665736
481548803,1.67057
481597606,1.647155
481639170,1.603648
481677913,1.691517
481760947,1.535166
481804972,1.315166
481843160,3.099386
481881014,1.496493
481920984,1.614122
481960852,1.695546
481998686,1.689101
482039975,1.618956
482081519,1.633458
482121036,1.614122
482163394,1.647155
482201345,1.671376
482241285,1.679432
482279387,1.643932
482319461,1.621373
482406187,1.633458
482443789,1.717299
482482875,1.848624
482525940,1.573033
482568122,1.336113
482611094,2.096874
482655408,1.511801
482694443,1.63507
482734993,1.689906
482777289,1.666541
482817322,1.601231
482859781,1.652039
482898978,1.635875
482938250,1.680238
482979316,1.691517
483060863,1.660902
483100118,1.643127
483142156,1.651234
483182676,1.667347
483224384,1.672987
483265063,1.908295
483308800,1.592369
483354929,1.428766
483401227,2.356352
483444515,1.563365
483488539,1.652845
483530621,1.685878
483570301,1.658485
483615465,1.632653
483659230,1.660902
483743551,1.685072
483786503,1.627819
483829364,1.621373
483873633,1.598009
483917585,1.594786
483966185,1.613317
484011005,1.639098
484053986,1.814786
484096813,1.574644
484140777,1.570616
484185480,3.225878
484228771,1.523081
484270369,1.619762
484317786,1.65929
484365940,1.652845
484450353,1.685878
484493603,1.677015
484537888,1.693934
484582308,1.662513
484624935,1.624596
484669807,1.637487
484715198,1.647155
484759655,1.618151
484806174,1.672181
484852835,1.831705
484898063,1.548057
484942325,1.299858
484986112,0.8872511
485032024,1.590758
485078184,1.695546
485166588,1.672987
485211893,1.699574
485255332,1.685878
485301689,1.698769
485347895,1.674598
485394264,1.661707
485440678,1.664124
485487411,1.653651
485532593,1.622985
485587162,1.712465
485635578,1.531943
485684599,1.492465
485731509,3.216209
485777738,1.525498
485823040,1.62943
485909306,1.652845
485958399,1.708437
486004376,1.67621
486051990,1.673793
486101060,1.671376
486149190,1.678627
486198753,1.647155
486249401,1.627013
486297258,1.609288
486345354,1.696352
486393591,1.52872
486442268,1.558531
486488880,3.226683
486537580,1.544834
486584087,1.641515
486674051,1.682655
486723022,1.656873
486771957,1.647961
486818668,1.712465
486864560,1.661707
486914077,1.638292
486961201,1.607677
487010792,1.597203
487060131,1.652845
487111175,1.782559
487162393,1.541611
487210330,2.053316
487260079,1.119336
487307351,1.607677
487356288,1.682655
487448255,1.643932
487495123,1.661707
487542831,1.67621
487593216,1.682655
487639086,1.657679
487686831,1.637487
487740235,1.634264
487792578,1.705214
487845413,1.741469
487897348,1.570616
487946662,3.236351
487997817,1.477157
488049263,1.596397
488102082,1.656068
488155427,1.66493
488248268,1.636681
488299330,1.697963
488351572,1.675404
488405712,1.646349
488469196,1.634264
488524903,1.706825
488577646,1.727773
488631495,1.581089
488689465,3.128391
488742472,1.573033
488793704,1.664124
488848844,1.685878
488902349,1.666541
488956996,1.699574
489011729,1.711659
489116898,1.625402
489172566,1.613317
489225074,1.627013
489278728,1.730996
489331602,1.536777
489383141,1.384454
489440464,0.9573449
489494540,1.562559
489546819,1.645544
489603817,1.663319
489657702,1.697963
489715127,1.695546
489769716,1.70038
489822200,1.674598
489876062,1.611705
489970405,1.620568
490022061,1.871234
490078078,1.555308
490132998,1.620568
490185816,1.217629
490240458,1.598814
490292415,1.660096
490346743,1.662513
490401917,1.657679
490456022,1.658485
490510182,1.63507
490567131,1.624596
490622853,1.631847
490681270,1.619762
490742033,1.728579
490876027,2.287869
490911006,0.7341222
490944447,1.53436
490981046,1.632653
491019228,1.681044
491053844,1.689906
491089651,1.631041
491125016,1.67621
491162075,1.680238
491198641,1.672987
491240055,1.696352
491275702,1.706825
491311467,1.681044
491347061,1.657679
491383212,1.647155
491464225,1.639904
491500442,1.821231
491536963,1.557725
491577097,1.559336
491616738,2.156493
491651387,0.7566812
491688363,1.561753
491728327,1.646349
491765570,1.677821
491802865,1.685072
491840450,1.642321
491879274,1.692323
491915791,1.665736
491952459,1.674598
491988442,1.669764
492071139,1.639098
492109251,1.595592
492143785,1.627819
492181944,1.637487
492218346,1.679432
492256432,1.821231
492294091,1.556919
492329651,1.535972
492367554,3.23474
492405914,1.158814
492444060,1.580284
492484641,1.632653
492522032,1.664124
492561629,1.656873
492611029,1.682655
492692475,1.671376
492733349,1.728579
492774947,1.701991
492814369,1.682655
492853954,1.67621
492893556,1.66493
492929041,1.663319
492969600,1.768862
493005316,1.719716
493045937,1.594786
493087271,1.597203
493125362,0.8775829
493166850,1.577061
493210642,1.643127
493251470,1.645544
493336247,1.658485
493377114,1.689101
493415549,1.667347
493454909,1.686683
493496509,1.661707
493536725,1.639098
493575266,1.638292
493616965,1.641515
493659105,1.657679
493698898,1.742275
493740787,1.636681
493784136,1.490854
493823544,2.027535
493865731,0.9734585
493905896,1.548862
493993186,1.644738
494036182,1.62943
494075833,1.660902
494118591,1.684266
494159515,1.693129
494201958,1.718105
494244859,1.705214
494287715,1.632653
494328383,1.632653
494372495,1.634264
494414084,1.644738
494456932,1.88493
494503435,1.557725
494548478,1.42071
494595163,1.996919
494685006,1.661707
494727657,1.687489
494770521,1.618956
494815826,1.662513
494861379,1.665736
494908783,1.669764
494951184,1.685878
494993681,1.681044
495041131,1.661707
495087904,1.606871
495143327,1.658485
495192330,1.733413
495237403,1.685878
495285228,1.552085
495335421,3.236351
495424328,1.588341
495468718,1.667347
495516035,1.690712
495562105,1.637487
495607437,1.652845
495653521,1.645544
495700413,1.645544
495749027,1.603648
495793721,1.593175
495841965,1.590758
495888533,1.577867
495935547,1.645544
495986653,1.689906
496033563,1.511801
496080440,2.33057
496173630,1.610899
496222155,1.704408
496272872,1.690712
496321158,1.684266
496367697,1.705214
496414456,1.701991
496462215,1.701991
496508449,1.690712
496555554,1.684266
496601242,1.65929
496646994,1.654456
496692313,1.747915
496737066,1.582701
496782476,1.566587
496832240,3.231518
496924393,1.63507
496972574,1.677821
497020324,1.641515
497070207,1.658485
497123016,1.681044
497177941,1.701991
497228113,1.67057
497276599,1.621373
497323164,1.614928
497373625,1.609288
497423601,1.743081
497472592,1.673793
497520404,1.54564
497568812,3.236351
497619344,1.482797
497712425,1.657679
497769458,1.657679
497820419,1.66493
497873015,1.639904
497922046,1.684266
497971298,1.616539
498022263,1.606871
498071604,1.596397
498121473,1.622985
498175019,1.717299
498229209,1.558531
498276313,1.573838
498327083,3.168675
498379681,1.574644
498430639,1.642321
498524280,1.652039
498574958,1.685072
498627467,1.667347
498681952,1.680238
498732232,1.632653
498783927,1.636681
498835730,1.612511
498887400,1.603648
498935533,1.803506
498985433,1.532749
499037645,1.29019
499091624,0.9839323
499144739,1.600426
499194345,1.661707
499247003,1.679432
499340271,1.696352
499391991,1.693934
499446268,1.766445
499495541,1.642321
499546074,1.631847
499606278,1.660096
499658981,1.889764
499713293,1.573033
499769612,1.565782
499823054,1.18379
499876369,1.652039
499927799,1.663319
499978181,1.684266
500033647,1.677015
500085605,1.641515
500183001,1.643932
500237393,1.62943
500291456,1.588341
500346358,1.622985
500402721,1.797061
500456917,1.51583
500511119,3.237157
500562612,1.479574
500614645,1.602843
500667504,1.664124
500720464,1.647155
500775365,1.689101
500829153,1.703603
500884402,1.718105
500937674,1.663319
501033791,1.647155
501086838,1.666541
501142707,1.840568
501195469,1.540806
501251143,3.233934
501306410,1.526304
501395685,1.709242
501431170,1.702797
501466013,1.680238
501499858,1.658485
501533309,1.642321
501567934,1.663319
501601474,1.693934
501636733,1.640709
501672702,1.631041
501748568,1.615734
501784987,1.603648
501822655,1.626207
501860430,1.798673
501898514,1.494076
501935869,1.530332
501970584,1.713271
502007131,0.9863493
502045513,1.531943
502083867,1.625402
502123914,1.666541
502159910,1.653651
502195113,1.620568
502235328,1.647155
502274865,1.647961
502366907,1.67621
502408669,1.660902
502444953,1.637487
502485707,1.632653
502528919,1.618956
502567509,1.730996
502604056,1.88493
502643945,1.589146
502682309,1.562559
502720819,3.226683
502760856,1.357061
502801041,1.627013
502841043,1.66493
502879025,1.679432
502919445,1.620568
503000896,1.67621
503037893,1.654456
503078041,1.672987
503115074,1.67057
503151872,1.650428
503193845,1.582701
503232076,1.62379
503273932,1.595592
503314562,1.709242
503353372,1.611705
503393396,1.549668
503433604,1.677821
503472993,0.7131746
503514263,1.544834
503552169,1.631041
503634619,1.677015
503675030,1.624596
503713458,1.654456
503752916,1.652039
503792910,1.687489
503835368,1.650428
503876110,1.614928
503916691,1.589952
503959327,1.60526
504005726,1.63507
504051239,1.857537
504094248,1.544834
504135242,1.573033
504172503,2.82455
504216888,1.270048
504303796,1.655262
504345861,1.682655
504387536,1.655262
504429538,1.668153
504471833,1.634264
504514693,1.638292
504560998,1.673793
504604817,1.657679
504646757,1.637487
504690323,1.656873
504733302,1.640709
504776079,1.735024
504818279,1.674598
504860385,1.586729
504906816,2.894695
504997928,1.59398
505039074,1.608482
505082121,1.679432
505127058,1.65929
505170460,1.673793
505214106,1.663319
505257970,1.696352
505302053,1.667347
505347375,1.639098
505391057,1.622179
505435244,1.62943
505479701,1.625402
505523090,1.715688
505565521,1.741469
505607889,1.59962
505693892,1.03474
505738429,1.619762
505782915,1.722133
505824252,1.732607
505868250,1.734219
505910078,1.723745
505955016,1.678627
505999910,1.697963
506043251,1.67057
506089580,1.640709
506144061,1.614122
506189597,1.620568
506237003,1.596397
506286129,1.718105
506332144,1.487631
506422107,3.236351
506467500,1.484408
506510402,1.631041
506558652,1.660096
506601700,1.628624
506650142,1.60526
506696643,1.638292
506743904,1.652039
506794016,1.691517
506842755,1.602843
506889913,1.643932
506937075,1.627013
506984344,1.616539
507029959,1.750332
507076625,1.704408
507167820,2.742371
507214362,1.345782
507260917,1.589952
507308749,1.708437
507356839,1.707631
507401174,1.661707
507448319,1.66493
507498521,1.633458
507547184,1.628624
507594708,1.628624
507642988,1.592369
507692271,1.608482
507740978,1.59962
507787923,1.667347
507834963,1.691517
507925521,1.869622
507976041,1.130616
508024934,1.628624
508071358,1.665736
508121011,1.67057
508168737,1.705214
508216513,1.701991
508268304,1.674598
508319546,1.689906
508370821,1.646349
508421387,1.620568
508469455,1.660096
508519073,1.662513
508570683,1.905072
508622092,1.558531
508716378,0.9718472
508765471,1.564976
508814976,1.671376
508868936,1.682655
508922173,1.672987
508984172,1.635875
509038859,1.62943
509088690,1.615734
509142970,1.60526
509198570,1.59398
509250517,1.631041
509300688,1.835733
509354056,1.584312
509405963,1.352227
509459569,1.099194
509555439,1.680238
509609731,1.728579
509663164,1.739052
509715693,1.692323
509769968,1.729384
509822833,1.665736
509876076,1.668153
509932157,1.633458
509985254,1.626207
510038253,1.870428
510093819,1.552085
510148159,2.030758
510204384,1.457821
510259608,1.619762
510312004,1.67057
510408385,1.664124
510461594,1.582701
510512853,1.651234
510566059,1.631847
510617039,1.638292
510668960,1.626207
510721642,1.723745
510773327,1.667347
510829215,1.578672
510882629,2.075926
510936518,1.573033
510990543,1.66493
511045978,1.652845
511101958,1.67057
511161862,1.600426
511264342,1.662513
511319930,1.626207
511374571,1.639904
511427588,1.786587
511485557,1.493271
511543260,3.174314
511598568,1.54
511652745,1.692323
511705765,1.677015
511762304,1.655262
511818451,1.709242
511878352,1.734219
511965183,1.624596
511998783,1.611705
512034453,1.664124
512113200,1.537583
512150129,1.513413
512185289,2.594882
512222912,0.9380087
512261691,1.577867
512297415,1.625402
512332942,1.651234
512370968,1.610899
512406905,1.62943
512442177,1.654456
512478517,1.671376
512516519,1.671376
512555948,1.750332
512591558,1.720522
512625295,1.675404
512705622,1.872845
512742675,1.538389
512777462,1.505356
512814590,1.571421
512849597,1.793838
512884737,1.499716
512922041,1.582701
512956526,1.647155
512993116,1.721328
513030719,1.663319
513067568,1.680238
513107072,1.692323
513143189,1.699574
513178983,1.744692
513224655,1.697157
513305868,1.593175
513345717,1.66493
513385567,1.641515
513423913,1.511801
513462198,1.309526
513500758,1.704408
513535899,1.484408
513576408,1.577867
513613727,1.639098
513653751,1.668153
513691687,1.67621
513729317,1.644738
513769147,1.618151
513809350,1.626207
513847642,1.620568
513931575,1.560948
513971119,1.556919
514010838,1.697157
514050783,1.637487
514090709,1.542417
514128418,1.431183
514167806,1.347393
514208475,1.539194
514249402,1.631041
514286505,1.652845
514327067,1.658485
514372062,1.656873
514411127,1.655262
514451488,1.682655
514492320,1.727773
514577388,1.685878
514618968,1.639098
514660370,1.65929
514700071,1.936493
514738434,1.568199
514779176,1.570616
514820865,3.236351
514860330,1.236965
514902470,1.570616
514941201,1.641515
514983498,1.630236
515027600,1.606065
