256566237,1.236965
256571852,1.234548
256577760,1.176539
256583703,1.138672
256589731,1.233742
256595646,1.238627
256601736,1.169288
256607896,1.212795
256614142,1.253129
256620423,1.274076
256626767,1.303886
256633200,1.303081
256639651,1.364312
256646166,1.294218
256707619,1.322417
256714291,1.313555
256721255,1.328057
256728177,1.363507
256735146,1.457821
256742214,1.432795
256749339,1.491659
256804030,1.984028
256811278,2.064646
256818547,1.926825
256825972,1.966304
256833287,2.058151
256840904,2.050094
256879993,2.1291
256921783,2.11621
257012348,2.158105
257056046,2.252369
257094045,2.0509
257133573,2.100902
257176007,2.038814
257214358,2.061373
257250672,1.859954
257290739,1.872845
257330910,1.747109
257370018,1.78417
257405974,1.749526
257446737,1.642321
257485764,1.656873
257527804,1.481186
257566672,1.438434
257657253,1.419904
257693908,1.538389
257734150,1.556919
257779505,1.506162
257819715,1.455404
257860923,1.910712
257903681,1.496493
257949101,1.451376
257990701,1.402985
258031163,1.596397
258071562,1.56417
258112877,1.493271
258155385,1.684266
258198108,1.667347
258242181,1.650428
258338949,1.573033
258383161,1.544028
258425905,1.538389
258468518,1.732607
258511595,1.683461
258553392,1.698769
258596713,1.62943
258637859,1.653651
258679929,1.473935
258723135,1.603648
258769748,1.705214
258812550,1.661707
258853884,1.728579
258895260,1.713271
258937359,1.751138
259032127,1.62943
259079725,1.638292
259128624,1.666541
259175916,1.654456
259219451,1.627013
259265139,1.686683
259310879,1.685072
259358175,1.624596
259399413,1.708437
259441005,1.539194
259485821,1.628624
259530782,1.672987
259575767,1.756777
259620777,1.753555
259662566,1.73583
259757315,1.668153
259802943,1.677821
259849550,1.663319
259893270,1.751138
259938836,1.714882
259983242,1.789004
260027381,1.837345
260078494,1.714882
260122852,1.86076
260168119,2.00981
260213366,1.874456
260261661,2.00981
260306446,2.03962
260351788,2.051705
260396226,1.982417
260491047,2.146825
260537487,2.219336
260581715,2.054122
260625594,2.007393
260672652,2.050094
260717298,2.017867
260771693,1.834122
260818511,1.945356
260865282,1.856732
260912953,2.079954
260961122,1.622985
261007700,1.613317
261056159,1.715688
261102462,1.581089
261150213,1.452987
261244991,1.442463
261297135,1.359478
261345637,1.363507
261392662,1.423127
261439948,1.299052
261490476,1.50455
261540431,1.384454
261594289,1.270048
261650843,1.227297
261702882,0.01530785
261750721,0.01047379
261801448,0.01047379
261850575,0.01289082
261904213,0.01208515
261950994,0.01289082
262047637,0.009668117
262097320,0.01127947
262147453,0.01127947
262195948,1.207961
262246061,1.421515
262294807,1.922797
262345585,0.8203296
262395381,1.427155
262447092,0.01450217
262496711,0.01047379
262545869,0.009668117
262593129,0.01127947
262643321,0.01289082
262699364,0.01450217
262747959,0.0136965
262848675,0.01450217
262900543,0.02014191
262954918,1.45057
263005829,0.9718472
263053410,1.691517
263104161,1.561753
263154504,2.183886
263206281,2.075926
263256688,1.784976
263305878,1.838956
263360369,1.577867
263414194,2.367631
263473098,2.641611
263526027,2.351517
263578854,2.051705
263681486,2.266871
263735964,3.187205
263787973,3.247631
263841557,3.254076
263891959,3.252465
263946627,3.253271
263998943,3.251659
264054868,3.257299
264105892,3.252465
264158101,3.253271
264209888,3.254076
264262769,3.254076
264318128,3.252465
264375081,3.254076
264436026,3.252465
264540201,3.247631
264594038,2.902751
264649020,2.855972
264702279,2.394218
264759578,2.000947
264812743,1.63507
264863190,1.351421
264919398,1.553697
264974400,1.569004
265027934,1.573033
265082174,0.7623209
265135115,0.4545022
265192343,0.3634104
265246389,0.01047379
265301764,0.01127947
265405966,0.01127947
265460023,0.0136965
265511762,0.01289082
265565099,0.0136965
265625103,0.01208515
265678653,0.01127947
265734773,0.07009384
265791317,0.07815061
265852024,0.1973907
265908847,0.2731746
265964564,0.3513252
266020128,0.7220371
266074881,0.01127947
266131884,0.01047379
266187413,1.131421
266291101,1.964692
266349401,1.824454
266404847,1.786587
266468493,1.95583
266556170,2.232227
266593242,2.370854
266629448,2.282229
266665565,2.357963
266704747,2.247535
266740401,2.410332
266779109,2.420806
266816462,2.411943
266858866,2.514314
266896824,2.573129
266933017,2.457061
267020666,2.470758
267056861,2.587631
267097463,2.648057
267138213,2.65853
267182266,2.459478
267223651,2.142797
267262425,1.892181
267300890,2.054122
267340734,2.1291
267383584,2.195166
267419030,2.0864
267454567,2.02109
267496254,2.006587
267535509,1.925214
267574517,1.992085
267662038,1.878485
267698180,1.862371
267738048,1.844596
267777991,1.699574
267817472,1.827677
267855649,1.699574
267893683,1.638292
267930400,2.031563
267970493,1.428766
268015770,1.681044
268054234,1.627819
268094508,1.610094
268134797,1.652039
268179182,1.668153
268218003,1.598814
268306396,1.569004
268345964,1.547251
268385478,1.494076
268428080,1.50455
268468326,1.490048
268506520,1.376397
268548802,1.261186
268591757,1.360284
268640096,1.104834
268678931,1.163648
268719324,1.241044
268760867,1.236965
268799291,1.29019
268841382,1.112891
268883527,1.211183
268972393,1.187013
269014677,1.265214
269060983,1.222463
269103889,1.268437
269143176,1.397345
269184668,1.340948
269227292,1.237821
269271448,1.508579
269316702,1.349004
269366474,1.440046
269412348,1.47474
269454081,1.585924
269497403,1.653651
269542389,1.70602
269590051,1.721328
269680847,1.725356
269721238,1.737441
269766540,1.698769
269810752,1.767251
269852915,1.863983
269896902,1.714882
269937723,1.743886
269981523,2.141991
270024264,1.81398
270069121,1.728579
270110936,1.798673
270154889,1.899432
270196454,1.842179
270240824,1.769668
270290810,1.824454
270383791,1.732607
270426984,1.681044
270472308,1.818814
270520599,1.699574
270566856,1.542417
270610220,1.652039
270654439,2.195166
270698680,1.609288
270743533,1.673793
270787941,1.67621
270833093,1.805923
270880280,1.778531
270924732,1.761611
270978976,1.870428
271022586,1.84379
271117554,1.816397
271162142,1.833316
271205692,1.84379
271252561,1.772891
271297457,1.824454
271343860,1.889764
271390509,1.640709
271441017,1.808341
271488685,1.776114
271534839,1.864788
271581156,1.755166
271627120,1.674598
271674542,1.728579
271726160,1.635875
271780935,1.740664
271882541,1.699574
271929185,1.698769
271977154,1.704408
272025056,1.597203
272076277,1.616539
272122151,1.607677
272167532,1.639098
272216819,1.760806
272265748,1.685878
272313908,1.681044
272360056,1.665736
272407774,1.672987
272458904,1.689906
272506556,1.628624
272558488,1.721328
272655861,1.657679
272704322,1.645544
272752572,1.642321
272802406,1.371563
272856178,1.636681
272904671,1.582701
272954712,1.672181
273004839,1.60526
273058035,1.706825
273108632,1.66493
273157831,1.621373
273206983,1.540806
273255342,1.460238
273305921,1.50455
273355059,1.606065
273450464,1.586729
273503945,1.71891
273558029,1.702797
273613662,1.824454
273663964,1.669764
273715892,1.758389
273766488,1.672987
273816786,1.643932
273868779,1.569004
273918556,1.657679
273971471,1.581089
274024632,1.466683
274079064,1.524692
274131084,1.598009
274181591,1.505356
274281874,1.522275
274333946,1.739052
274387982,1.689906
274444579,1.741469
274505045,1.496493
274560874,1.451376
274612500,1.467489
274667119,1.473935
274719989,1.324028
274777270,1.332085
274829177,1.376397
274879253,1.73019
274934242,1.361089
274988030,1.1709
275041704,0.8138842
275142301,0.8663034
275194996,1.110474
275249598,1.236965
275302146,0.9057817
275357720,0.9090043
275412186,1.186207
275468230,1.123365
275521342,0.8542184
275576092,0.9363974
275635929,1.291801
275689083,1.343365
275743821,1.112085
275800193,1.117725
275858025,1.452181
275913474,1.872039
276017943,1.548057
276072118,2.10493
276126272,1.986445
276183552,1.669764
276239324,1.689101
276293205,2.013838
276350206,2.202417
276405014,2.275784
276466428,2.301566
276522403,2.013838
276578440,1.84943
276632895,2.388578
276688322,2.651279
276745143,2.504646
276801692,2.399052
276904869,2.961565
276961273,2.833413
277020716,2.877725
277077966,2.826967
277133459,2.804408
277189001,2.594882
277246014,2.482087
277304509,2.283035
277365410,2.174218
277430374,2.034786
277491960,2.27095
277580767,1.743886
277617690,1.742275
277658942,1.562559
277694739,1.607677
277780481,1.452181
277819271,1.476351
277857014,1.378814
277892821,1.443268
277930420,1.228103
277964853,1.234548
278005953,1.264408
278042317,1.274076
278079248,1.330474
278114752,1.376397
278153475,1.519858
278187562,1.075024
278226937,1.297441
278271423,1.380426
278309469,1.353838
278394093,2.119432
278431947,2.379716
278473777,2.451421
278512858,2.501424
278548869,2.459478
278586815,2.369242
278624612,2.301566
278663244,2.293509
278703116,2.243506
278741684,2.142797
278784094,2.138769
278825941,2.013838
278873660,1.947773
278913581,1.883319
278953516,2.030758
279047747,1.877679
279088090,1.883319
279128276,1.863983
279168303,1.918769
279208599,1.87929
279251571,1.872845
279292683,1.838151
279331946,1.805118
279371507,1.674598
279412524,1.613317
279454959,1.620568
279499521,1.447347
279548411,1.527915
279593699,1.353838
279634843,1.123365
279723552,0.9686243
279768111,0.6583886
279808147,0.5278187
279848246,0.6914214
279892172,0.8816113
279934666,0.9903776
279977043,1.163648
280017619,1.279716
280057064,1.313555
280099080,1.163648
280142123,0.5777707
280183781,0.03706111
280224910,0.0136965
280266246,0.01289082
280305155,0.01047379
280398243,0.01772488
280445395,0.01289082
280487426,0.01047379
280530940,0.01127947
280574851,0.01127947
280621440,0.0136965
280665591,0.01289082
280708309,0.8808057
280751268,1.321611
280794856,1.353838
280839189,1.566587
280881640,1.899432
280922162,1.973555
280967647,2.681946
281012111,2.627915
281112825,2.902751
281157796,3.23474
281203061,3.253271
281247356,3.252465
281292663,3.251659
281335143,3.251659
281381461,3.255688
281426609,3.252465
281473557,3.256494
281518376,3.252465
281561348,3.252465
281604611,3.253271
281649293,3.250854
281696499,3.253271
281748195,3.250854
281850216,3.252465
281900192,3.254882
281946840,3.24602
281994957,2.628721
282045392,2.630332
282091884,2.290286
282136025,1.892181
282185359,2.028341
282232081,1.587535
282278852,1.116919
282324594,0.9976288
282370021,0.7494301
282416859,0.01127947
282465543,0.0136965
282511736,0.01127947
282606699,0.01289082
282652726,0.01127947
282699220,0.01127947
282744013,0.008056764
282794005,0.01289082
282846433,0.01047379
282894676,0.01047379
282942107,0.0136965
282990559,0.01127947
283042391,0.6213275
283090613,1.813175
283137451,0.6366354
283185220,1.205544
283233033,1.365118
283283881,1.51583
283378963,1.802701
283426966,2.00417
283477465,2.004976
283528545,2.054928
283582793,2.000142
283631316,1.460238
283679878,2.050094
283729093,1.578672
283778492,1.463461
283826826,1.592369
283878492,2.018672
283928317,2.063841
283982565,2.105736
284032354,2.507869
284081169,2.437725
284178792,2.594076
284229402,2.747205
284281362,2.31929
284335991,3.250048
284393370,3.251659
284447500,3.250854
284498406,3.251659
284550985,3.249242
284607506,3.247631
284657239,2.423223
284707359,0.5705195
284760600,0.9041702
284812259,0.9831265
284864033,1.099194
284915711,0.2618952
285014467,0.2691463
285066575,0.3666331
285118876,0.01127947
285169583,0.01289082
285223706,0.1973907
285274781,0.5898558
285328018,0.9331747
285379769,1.272465
285434529,1.697157
285492802,1.967915
285546347,2.040426
285598521,1.917963
285651002,2.065452
285707391,1.927631
285760282,1.763223
285859410,1.216017
285911907,1.394928
285965615,1.244266
286019683,1.054076
286072186,1.216823
286125528,1.197487
286180097,1.233742
286231587,1.431183
286290455,1.453793
286345100,1.440851
286399579,1.47474
286452510,1.742275
286509068,1.812369
286562077,1.696352
286618277,1.594786
286718443,1.813175
286776479,1.883319
286832018,1.917963
286885985,2.028341
286939034,1.984834
286994690,2.137963
287050760,2.159716
287110335,2.154882
287172930,2.13474
287233021,2.062179
287290318,2.062179
287347386,2.026729
287407563,2.203223
287462067,2.062179
287516948,2.066258
287622598,1.930048
287679330,1.889764
287735046,1.897015
287790761,1.90185
287843438,1.660096
287900653,1.705214
287958453,1.551279
288014003,1.624596
288072322,1.48602
288127777,1.495688
288183548,1.390094
288239580,1.436017
288296167,1.519052
288387327,1.579478
288424400,1.547251
288511581,2.905168
288552766,3.117917
288590297,3.012323
288626617,2.947063
288662864,2.799574
288701066,2.807631
288738802,2.846303
288776869,2.837441
288810730,2.933367
288847407,2.872085
288888362,2.840664
288933544,2.914031
288971840,2.407109
289010150,2.497395
289050323,2.36602
289135203,1.984028
289173835,1.893793
289213839,1.796255
289252532,1.638292
289295102,1.472323
289332601,1.248295
289369889,0.7018952
289405821,0.01289082
289444999,0.01127947
289485793,0.01289082
289528909,0.009668117
289576336,0.01047379
289618846,0.01208515
289657571,0.01127947
289696111,0.01127947
289785659,0.03303273
289823970,0.4230808
289859789,0.6720852
289899175,1.007297
289939474,1.216823
289979787,1.438434
290019074,1.509384
290058554,1.549668
290098653,1.624596
290139965,1.756777
290179435,1.822037
290220751,1.834122
290260008,1.870428
290300522,1.891376
290340306,1.888959
290429544,2.963177
290471168,3.006683
290513965,3.226683
290557099,3.250854
290601435,3.252465
290642278,3.251659
290683212,3.252465
290724368,3.253271
290767200,3.250854
290809887,3.252465
290851736,3.254882
290893494,3.252465
290936475,3.250048
290976709,3.246825
291025841,3.05583
291116263,2.696448
291159075,2.71659
291200602,2.508675
291244240,2.375688
291285916,2.291898
291329371,2.06948
291372754,1.87929
291420386,1.622179
291464336,1.586729
291506813,0.7389563
291549406,0.6446921
291593390,0.3771069
291637157,0.3239322
291684978,0.299762
291736847,0.3497139
291831652,0.3054017
291876392,0.2345022
291919934,0.0136965
291966628,0.01289082
292009051,0.01289082
292051692,0.01289082
292097305,0.01127947
292142555,0.01127947
292186910,0.01127947
292232067,0.01047379
292275217,0.8122728
292321529,0.5205677
292366591,1.112085
292409692,1.378814
292456709,1.563365
292547350,2.986542
292591590,3.246825
292635440,3.252465
292683302,3.253271
292728081,3.252465
292775837,3.253271
292822414,3.252465
292870736,3.252465
292915749,3.250048
292961277,3.249242
293005850,3.244408
293052990,3.053413
293098936,2.801186
293146720,2.799574
293193207,2.677061
293288692,2.378911
293336597,2.258009
293390469,2.124266
293438326,1.99853
293485296,1.887347
293532595,1.737441
293579976,1.516635
293625465,1.376397
293672492,1.21924
293720539,1.145924
293769237,1.12417
293817732,0.9936003
293862216,0.9774868
293908852,0.9057817
293956804,0.9460655
294054002,0.776823
294106525,1.054882
294164122,1.051659
294218705,1.114502
294269441,1.149146
294319953,1.307915
294371381,1.066162
294421050,1.179762
294467264,1.274882
294518474,1.377203
294568791,1.291801
294616862,1.413458
294666895,1.421515
294715646,1.560948
294767695,1.482797
294867463,1.277299
294916321,1.248295
294967296,1.3909
295015221,1.41507
295065964,1.610094
295115427,1.556113
295166304,1.661707
295217227,1.631847
295267224,1.689101
295317629,1.693129
295370386,1.721328
295421122,1.718105
295470524,1.743081
295519883,1.988862
295572031,1.808341
295669774,1.844596
295721625,1.805923
295772452,1.803506
295823835,1.903461
295874025,1.794644
295932699,1.788199
295983847,1.853458
296035536,1.725356
296088706,1.940522
296142080,1.711659
296192351,1.725356
296244174,1.726162
296297223,1.617345
296352858,1.532749
296406320,1.824454
296503137,1.800284
296554138,1.653651
296607801,1.829288
296660236,1.531138
296715124,1.572227
296775563,1.537583
296832762,1.517441
296886704,1.780142
296942148,1.525498
296999142,1.51583
297051941,1.479574
297104920,1.602843
297160956,1.306304
297213757,1.396539
297266668,1.774502
297369366,1.753555
297420775,1.556919
297475868,1.454598
297532700,1.643932
297588088,1.815592
297646251,1.712465
297699879,1.59962
297753858,1.609288
297806024,1.986445
297861840,1.740664
297917778,1.821231
297974794,1.581895
298030514,1.755166
298087850,1.851041
298142322,1.757583
298244776,1.756777
298298778,1.485214
298353727,1.531943
298410930,1.503745
298467714,1.739858
298523267,1.705214
298581037,1.65929
298640777,1.646349
298703089,2.079149
298760164,1.613317
298818570,1.525498
298875707,1.47474
298933285,1.608482
298988769,1.811563
299045878,1.962275
299150890,1.656873
299239937,1.612511
299276470,1.413458
299311264,1.589952
299348762,1.722939
299386411,1.699574
299427576,1.668153
299472628,1.722133
299514667,1.337725
299553605,1.523081
299591130,1.554502
299631500,1.672987
299667859,1.948579
299702451,1.729384
299741421,1.695546
299824869,1.771279
299863166,1.673793
299901672,1.643932
299938748,1.444124
299977735,1.467489
300016913,1.382843
300054106,1.494076
300094221,1.447347
300131463,1.672181
300170575,1.671376
300206495,1.742275
300247284,2.186304
300285839,1.718105
300325254,1.888959
300366602,1.821231
300456114,1.416681
300494125,1.495688
300532872,1.585118
300571521,1.689906
300610282,1.775308
300650388,1.691517
300689899,1.712465
300729770,1.818814
300770390,1.678627
300807967,1.81398
300854248,1.56981
300894782,1.427155
300935503,1.421515
300976471,1.339336
301017812,1.336919
301107139,1.902655
301147946,1.971943
301188910,1.841373
301229331,1.798673
301268324,1.861565
301308227,1.887347
301349628,1.807535
301392355,1.660902
301437606,1.470712
301485838,1.889764
301532323,1.543223
301574380,1.54
301614924,1.542417
301661441,1.635875
301701581,1.651234
301790158,1.753555
301835498,1.445736
301877574,1.411847
301920384,1.764834
301963219,1.868817
302002930,1.37962
302045410,1.381231
302087893,1.990474
302129713,1.785782
302174548,1.185402
302215673,0.6551659
302257586,0.1820828
302297269,0.01047379
302341263,0.01208515
302385427,0.0136965
302476978,0.009668117
302521112,0.01289082
302566959,0.01127947
302611436,0.01289082
302654672,0.01047379
302697864,0.01047379
302741209,0.01127947
302787644,0.0136965
302830180,0.01208515
302873939,0.01047379
302917847,0.01127947
302963164,0.009668117
303015532,0.01208515
303060980,0.009668117
303106249,1.161231
303198363,2.168579
303244760,3.175926
303288460,3.229906
303335510,3.237963
303382851,3.249242
303430719,3.253271
303475260,3.250854
303520061,3.255688
303566378,3.251659
303614044,3.251659
303664105,3.251659
303717995,3.250854
303767456,3.252465
303812877,3.252465
303859228,3.252465
303954541,3.252465
303998899,3.251659
304044870,3.252465
304093112,3.250854
304139073,3.252465
304185211,3.251659
304233240,3.253271
304277815,3.253271
304325164,3.252465
304374077,3.252465
304420593,3.250854
304469188,3.249242
304514687,3.251659
304563195,3.256494
304609242,3.254076
304704685,3.249242
304751625,3.24038
304800458,3.244408
304851016,2.872085
304900539,2.564266
304948994,2.561849
304996867,1.78981
305043829,1.815592
305093709,1.03474
305143791,0.4609476
305191787,0.0169192
305241793,0.008862439
305292710,0.01047379
305342211,0.01208515
305398617,0.01289082
305494652,0.009668117
305544781,0.01127947
305592424,0.01127947
305642082,0.01611353
305692451,0.01611353
305741943,0.01127947
305792746,0.4859236
305843685,1.119336
305892917,0.9903776
305942263,1.076635
305993310,0.9355916
306045880,1.312749
306100680,1.016159
306160572,1.083081
306214838,0.857441
306311583,1.091943
306362656,1.171705
306417096,1.149952
306468870,1.395734
306519262,1.258769
306571153,1.324028
306623067,1.371563
306675079,1.13545
306728648,1.42071
306779290,1.29583
306834153,1.222463
306887367,1.633458
306938786,1.357867
306993212,1.428766
307044650,1.672181
307143805,1.701991
307193823,1.469906
307247432,1.710048
307300821,1.597203
307353199,1.619762
307405992,1.628624
307461009,1.634264
307514711,1.506162
307567408,1.847013
307621142,1.552085
307675853,1.582701
307730041,1.769668
307784530,1.768862
307837794,1.680238
307893495,1.466683
307998292,1.517441
308056859,1.407013
308111559,1.573033
308167764,1.831705
308220903,1.555308
308276219,1.478769
308331159,1.610094
308386221,2.27095
308441338,1.93166
308497686,1.681849
308551771,1.838151
308606631,2.036397
308661297,1.901044
308718244,1.43924
308777674,1.303886
308888592,1.594786
308946389,1.891376
309002186,1.949384
309057960,1.753555
309118176,1.701991
309172964,1.714882
309226009,2.341849
309285599,1.842985
309342415,0.3215152
309399073,0.0136965
309455672,0.01047379
309511101,2.079954
309568418,1.62943
309625842,1.658485
309683285,0.0136965
309791453,1.664124
309846812,1.666541
309902609,3.246825
309958714,2.041231
310045039,1.611705
310082011,1.65929
310119376,1.667347
310158161,1.186207
310195808,2.596493
310231989,2.885781
310268418,3.246825
310304545,3.251659
310343899,3.253271
310380906,3.255688
310417669,3.252465
310504330,3.251659
310540393,3.251659
310582963,3.254076
310619633,3.256494
310659562,3.252465
310696557,3.252465
310735443,3.254076
310772252,3.254076
310812394,3.254076
310852505,3.252465
310891680,3.253271
310928196,3.252465
310965872,3.255688
311002449,3.254076
311042053,3.251659
311134672,2.559433
311182535,2.459478
311226343,0.4383886
311267542,0.01047379
311307566,0.01047379
311352829,0.01047379
311390260,2.024312
311427974,1.684266
311469518,1.669764
311509844,1.66493
311551632,1.668958
311591798,2.515926
311630695,2.55057
311670549,2.598911
311710759,2.149242
311796855,3.252465
311839078,3.252465
311878247,3.238769
311917840,2.273367
311955651,2.282229
311997148,2.273367
312038126,2.154076
312078631,1.963886
312121548,1.877679
312162435,1.799478
312202717,1.755972
312242267,1.669764
312285007,1.553697
312326621,0.7486244
312367538,1.168482
312456266,2.315262
312499926,2.460284
312543301,2.664976
312590741,3.250854
312632575,3.252465
312674408,3.252465
312715720,3.254076
312758211,3.254076
312798505,3.253271
312842146,3.254076
312884234,3.252465
312927905,3.255688
312969962,3.253271
313012303,3.253271
313054272,3.254076
313146992,3.253271
313196795,3.252465
313249161,3.254882
313298403,3.237157
313342359,2.764124
313387787,2.690808
313436319,2.338627
313480785,1.977583
313523932,1.831705
313568591,1.490048
313613603,0.9154497
313658438,0.3102358
313703299,0.01047379
313746936,0.01208515
313792407,0.0136965
313886386,0.008862439
313929966,0.01450217
313978059,0.01047379
314021650,0.01289082
314067480,0.01127947
314109808,0.009668117
314156097,0.01047379
314202026,0.0136965
314249833,0.01289082
314299880,0.01047379
314346414,0.0136965
314391565,0.3698558
314438448,0.5318471
314485501,0.6922271
314532629,1.238627
314626188,1.495688
314671814,1.54
314718225,1.465072
314763261,1.382843
314817286,1.405402
314864911,1.453793
314913963,1.440851
314960058,1.365118
315007379,1.531943
315053350,1.644738
315103211,1.509384
315150010,1.688295
315199898,1.923603
315246596,1.89621
315293296,1.898627
315389962,1.993697
315438468,1.889764
315490826,2.034786
315547304,2.025118
315599022,1.476351
315649280,1.92602
315699541,1.690712
315752797,1.859149
315800269,1.76564
315848153,1.777725
315899076,1.535166
315948287,0.9944059
315997774,1.719716
316045271,1.739052
316093342,1.827677
316189799,1.889764
316238872,1.750332
316287475,1.858343
316339009,1.705214
316388174,1.876068
316436936,1.726162
316484671,1.757583
316534267,1.826066
316584711,1.739858
316635391,1.621373
316688704,1.188624
316739593,1.72455
316789232,1.895404
316838746,1.780142
316890146,1.98564
316989745,1.97436
317040299,1.789004
317092356,1.945356
317142499,1.796255
317197034,1.841373
317252514,2.035592
317304061,1.768862
317355708,1.851847
317407786,2.088011
317459856,1.771279
317510154,1.935688
317563487,1.809952
317616836,1.822037
317670689,1.87929
317721123,1.73583
317818314,1.731801
317871364,1.8664
317925739,1.844596
317981009,1.743081
318042530,1.732607
318101179,1.727773
318154137,1.621373
318208684,1.897015
318265049,1.828483
318316029,1.832511
318365447,1.844596
318420682,1.747109
318473785,2.079954
318526843,2.13474
318580833,1.972749
318679096,1.956635
318733519,2.11057
318787410,2.088817
318839315,1.908295
318896447,1.556919
318949225,2.0864
319002396,1.963081
319055538,2.017061
319110379,2.17019
319165255,1.991279
319227460,2.079149
319286702,2.054122
319342205,1.912323
319396354,1.946967
319452403,2.046066
319554153,2.005782
319610477,2.374882
319666421,1.831705
319722771,1.721328
319778157,1.761611
319832282,1.84379
319892238,1.713271
319948331,1.630236
320005858,1.51583
320062089,1.348199
320118861,1.344976
320173666,1.426349
320231659,1.423127
320289776,1.374786
320349665,1.73019
320452299,1.516635
320507659,1.847013
320564770,1.726162
320623073,1.639098
320685009,1.640709
320749872,1.779336
320812512,1.607677
320870178,1.66493
320964322,1.562559
320998932,1.380426
321034890,1.438434
321072562,1.518247
321109144,0.8912794
321146496,1.364312
321181293,1.383648
321265115,1.581089
321302943,1.622179
321339354,1.600426
321375612,1.603648
321414875,1.641515
321451037,1.689906
321487664,1.66493
321522696,1.553697
321561427,1.550474
321598855,1.54564
321637579,1.592369
321679299,1.602037
321718243,1.543223
321754853,1.656873
321792577,1.794644
321877398,1.668153
321916840,1.689101
321957646,1.751138
321995579,1.786587
322034616,1.809952
322074833,1.786587
322121145,1.722133
322159836,1.740664
322198566,1.768862
322235856,1.788199
322276302,1.779336
322313306,1.876873
322356177,1.785782
322395092,1.8664
322437114,1.805118
322523429,1.732607
322562253,1.025827
322602744,1.834928
322644716,1.85507
322690381,2.054928
322737956,1.87929
322781717,1.869622
322823121,1.8664
322868368,2.050094
322906044,1.98564
322945864,1.970332
322988498,2.025923
323029995,2.092845
323071236,2.084788
323112586,2.048482
323200925,1.838151
323242581,1.848624
323283541,2.388578
323324380,1.556919
323369602,2.014644
323410285,2.011421
323453054,2.013033
323492316,2.000947
323535181,1.93166
323577855,1.812369
323619994,1.788199
323665620,1.877679
323708957,1.963081
323749901,1.959858
323791888,1.977583
323884964,1.684266
323928482,1.532749
323971510,1.200709
324013968,0.9355916
324058194,0.6511375
324099425,0.7059236
324148423,0.8356878
324192445,1.009714
324236388,1.168482
324280664,1.319194
324325328,1.593175
324367723,1.856732
324411925,1.91474
324456016,1.797061
324501137,1.716493
324588041,1.927631
324631202,2.003365
324676288,1.951801
324720941,1.760806
324770877,1.882513
324823589,1.294218
324871616,2.01545
324915859,1.887347
324966403,1.948579
325010245,2.062179
325052631,2.169384
325099501,2.056539
325145649,2.145214
325189797,2.311234
325235681,2.189526
325326103,2.391801
325373100,2.55057
325418054,2.368437
325463684,2.418389
325509001,2.378911
325553719,1.84379
325600402,2.079954
325642769,2.112987
325688732,2.208862
325735368,2.162133
325780625,1.942939
325830935,1.42071
325878734,0.1305196
325925303,1.261991
325971730,0.01127947
326066474,1.473935
326114230,0.0136965
326162521,0.01047379
326208464,0.01127947
326257928,0.01047379
326307639,0.01289082
326360827,1.880096
326409232,1.65929
326457372,1.664124
326504521,0.0136965
326552186,0.01047379
326599011,0.01127947
326647749,0.01208515
326696652,0.01127947
326746676,0.01047379
326841898,0.0136965
326889773,0.01127947
326938356,0.01127947
326988270,0.01047379
327040189,0.01047379
327094573,0.01127947
327146346,0.01127947
327196242,0.2006134
327250338,1.123365
327298967,1.311138
327346640,1.91474
327398403,2.18872
327448996,2.163744
327498533,2.432891
327546177,2.862417
327640904,3.202513
327693109,3.250048
327741608,3.251659
327790058,3.252465
327839652,3.251659
327889999,3.253271
327939781,3.250854
327986929,3.252465
328035924,3.252465
328085686,3.254076
328137344,3.251659
328191779,3.250854
328242047,3.250048
328292595,3.253271
328343249,3.252465
328443139,3.251659
328495903,3.24602
328548232,3.237963
328599751,2.935784
328653934,2.988153
328705198,2.679478
328764947,2.673838
328816266,2.573129
328868408,2.511898
328920932,2.28948
328974497,2.320902
329025125,2.217725
329078425,2.000142
329131671,1.976777
329185328,1.202321
329285586,1.645544
329336556,1.593175
329390596,1.440851
329443461,1.115308
329501288,0.9412313
329563161,0.9090043
329620691,0.7163973
329674820,0.8171069
329735721,0.8880568
329788833,1.062939
329841915,0.7647379
329897078,0.7389563
329952052,0.411751
330004324,1.098389
330058106,1.236965
330157749,1.289384
330213387,1.29019
330269064,1.383648
330324862,1.257963
330383271,1.279716
330437260,1.399762
330491183,1.52872
330545555,1.581089
330601553,1.499716
330656516,1.544028
330710685,0.8896681
330771858,1.735024
330827231,1.788199
330881676,1.70038
330935918,1.750332
331040425,1.697963
331098424,1.625402
331155249,1.701186
331210928,1.756777
331269118,1.729384
331326223,1.751943
331388333,1.646349
331443554,1.542417
331501070,1.102417
331556764,1.699574
331612816,1.806729
331668260,1.735024
331759475,1.580284
331798367,1.634264
331832227,1.747109
331915629,1.680238
331952976,1.751943
331990187,1.730996
332030051,1.696352
332075351,1.805923
332115886,1.573838
332152417,1.722939
332193002,2.882559
332229333,1.176539
332265743,1.639098
332304102,1.651234
332340757,1.632653
332377521,1.693934
332414098,1.768057
332449467,1.703603
332532904,1.674598
332571773,1.668153
332609124,1.647155
332649250,1.622985
332686486,1.57545
332723894,1.531138
332761610,1.535972
332799120,1.677821
332835730,1.506162
332872587,1.569004
332914276,2.688391
332953988,1.014548
332992637,1.568199
333032956,1.62943
333071620,1.710854
333159225,1.473935
333198479,1.143506
333237419,1.129004
333276250,1.186207
333314758,1.258769
333359967,1.179762
333398574,1.21924
333439040,1.240238
333480095,1.311943
333521218,1.402179
333560361,1.238627
333600186,1.10564
333641501,0.799382
333679323,1.218434
333719105,1.287773
333806842,0.7824628
333847698,0.8606638
333890626,0.9678186
333939686,0.6857817
333984311,0.01289082
334027292,0.1998077
334074118,0.411751
334114918,0.2884825
334156046,0.4343603
334200039,0.7341222
334242914,0.5785763
334285423,0.717203
334326423,0.8421332
334367837,1.152369
334411089,1.465878
334502155,1.639904
334542750,1.692323
334586366,1.76564
334627737,1.812369
334670651,1.930854
334711012,1.917963
334752135,1.967109
334795786,1.924408
334839759,1.886541
334886492,1.889764
334930709,2.021895
334973479,2.023506
335018136,1.160426
335060895,1.809146
335105265,1.893793
335197985,1.945356
335240979,1.917963
335285484,1.935688
335333221,2.095262
335382835,1.930048
335427841,1.973555
335472656,2.054928
335515371,2.025923
335558118,2.054928
335601640,1.830899
335646717,1.857537
335693712,1.077441
335737551,1.916352
335780834,1.918769
335826434,1.959858
335918498,1.964692
335968172,1.938105
336021020,1.853458
336069052,1.941328
336115054,1.942939
336163282,1.801895
336207821,1.841373
336250964,1.915546
336296441,1.762417
336342225,1.714882
336388726,3.01474
336434380,1.531138
336477763,1.771279
336524025,1.714076
336570879,1.839762
336667004,1.674598
336714233,1.70602
336760233,1.595592
336806401,1.527915
336851077,1.524692
336899066,1.416681
336946906,1.503745
336995159,1.672987
337046263,1.434406
337094584,1.72455
337141805,0.8211353
337188680,1.577867
337237637,1.67057
337286618,1.666541
337336299,1.716493
337429741,1.684266
337479842,1.59398
337527027,1.595592
337580538,1.577867
337628779,1.639098
337677924,1.651234
337724642,1.697157
337773414,1.56417
337820144,1.483603
337869549,0.9130327
337919364,1.613317
337967699,1.710854
338015451,1.821231
338065747,1.705214
338117086,1.698769
338218239,1.652039
338275921,1.656873
338329256,1.611705
338380208,1.505356
338432150,1.481186
338481205,0.9710415
338528431,0.687393
338580652,0.06767681
338630731,0.4408057
338681667,0.6229389
338732877,1.007297
338779913,1.10564
338833204,1.234548
338884034,1.164454
338933185,1.352227
339032759,1.448153
339082687,1.447347
339132921,1.640709
339183261,1.457821
339235335,1.517441
339286474,1.10564
339337404,1.785782
339392485,1.885736
339444618,1.763223
339495273,1.937299
339547059,1.79545
339598913,1.865594
339651099,1.862371
339704479,1.740664
339758364,1.832511
339859573,1.751943
339913584,1.874456
339970333,1.101611
340023842,1.801895
340077111,1.90185
340131021,1.921991
340185125,1.776114
340238983,1.822037
340291880,1.89057
340346373,1.772085
340399239,1.811563
340451852,1.876873
340504585,1.708437
340558831,1.713271
340615740,1.78981
340725544,1.734219
340783111,1.734219
340838315,1.822843
340897251,1.815592
340948662,1.712465
341000646,1.728579
341055871,1.786587
341111389,1.755166
341166696,1.639904
341220428,1.748721
341272864,1.616539
341330363,1.832511
341384639,1.051659
341438967,1.663319
341494658,1.82526
341597107,1.768862
341653175,1.650428
341706012,1.591563
341762356,1.566587
341818768,1.567393
341874533,1.562559
341933247,1.62379
341988463,1.28455
342041081,2.317679
342095793,1.016965
342151505,1.274882
342207490,1.326445
342264683,1.349004
342320512,1.350616
342377405,1.347393
342480402,1.170094
342542629,1.085498
342631013,1.265214
342668488,0.9911834
342706047,0.8920851
342741746,2.064646
342776043,0.6672511
342813845,1.279716
342849806,1.274076
342886111,1.147535
342923761,0.967013
342962928,0.7188144
343004350,0.4520851
343048978,0.4963974
343088395,0.3400458
343175319,0.1248798
343217704,0.4553079
343254548,0.6809475
343289883,0.9412313
343328415,1.030661
343367256,1.214406
343404167,1.887347
343442959,0.9871549
343478631,1.678627
343517967,1.883319
343557519,1.962275
343595070,2.017867
343635581,2.063035
343673426,2.081565
343711404,2.060568
343797285,2.149242
343835484,2.173413
343873457,2.175024
343913470,2.176635
343956215,2.204834
343996646,2.154882
344035389,2.190332
344074432,2.80038
344112420,1.644738
344152909,2.180664
344192508,2.191138
344232081,2.189526
344272491,2.207251
344315108,2.237061
344364035,2.059762
344452169,2.157299
344493270,2.133129
344534679,2.14038
344574159,2.073509
344614280,2.17583
344657477,2.037203
344697246,2.062179
344737348,1.958247
344778885,0.9936003
344821865,1.850236
344867777,1.893793
344916654,2.017867
344961926,1.917157
345003357,1.830899
345048686,1.768057
345137445,1.889764
345176024,1.818814
345217816,1.807535
345258248,1.79545
345298518,1.800284
345341582,1.800284
345381162,1.618956
345426135,1.471517
345469965,2.585214
345512073,1.167677
345556103,1.535972
345598115,1.570616
345641079,1.539194
345683616,1.54
345725911,1.432795
345814482,1.347393
345858502,1.270048
345906590,1.068579
345951101,1.027439
345994074,1.110474
346037186,1.26602
346081933,1.207155
346128394,1.149952
346173345,2.673838
346216204,0.5237904
346259940,1.12417
346304818,1.232131
346357633,1.444124
346403201,1.32
346446795,1.286162
346539934,1.401373
346582445,1.336113
346629224,1.357867
346673997,1.563365
346716308,1.710854
346759553,1.592369
346804599,1.441657
346850888,2.463506
346899777,1.220851
346953588,1.693129
347001732,1.789004
347046260,1.471517
347096698,1.652845
347141509,1.596397
347184802,1.606065
347279591,1.685878
347326272,1.602843
347371995,1.689101
347417875,1.719716
347463882,1.693129
347511822,2.497395
347559787,1.343365
347606036,1.768862
347654317,1.82526
347700373,1.995308
347749261,1.850236
347793738,1.858343
347841141,1.929242
347889130,1.803506
347935589,1.877679
348032986,1.84379
348080526,1.924408
348127783,1.768057
348174272,2.308817
348221770,1.424738
348271539,1.814786
348320454,1.971138
348368160,1.813175
348418631,1.959858
348469560,1.730996
348524488,1.842179
348573791,1.787393
348625055,1.75436
348674776,1.731801
348722521,1.811563
348820153,1.603648
348872995,2.88417
348919561,1.353033
348967238,1.622985
349016678,1.852653
349065768,1.880902
349118675,2.154076
349175741,2.301566
349229086,2.353935
349279387,2.619052
349333324,2.511898
349381376,2.673033
349427779,2.714978
349477683,3.027631
349527747,2.469146
349624783,2.095262
349674064,2.53929
349723971,2.915642
349775772,2.947869
349825946,2.955926
349876031,3.042939
349928891,2.897917
349978893,2.972845
350029005,2.719007
350077675,2.792323
350129813,2.503841
350179945,2.611801
350229483,1.743081
350284193,2.432891
350336265,2.329764
350434383,2.127489
350485816,1.959858
350537514,1.880096
350589844,1.675404
350644840,1.905878
350696825,1.925214
350751358,1.794644
350803081,1.813175
350863794,1.731801
350917184,0.7018952
350972654,1.508579
351026609,1.983223
351078831,2.092845
351131746,2.133129
351188970,2.0509
351287580,1.830094
351340392,2.44417
351394845,2.578768
351449069,2.55057
351507239,2.735926
351568629,2.887393
351627199,3.170286
351680810,3.221849
351741994,3.233129
351795396,3.249242
351848741,3.256494
351905639,3.252465
351961116,3.253271
352014825,3.252465
352068317,3.252465
352168961,3.252465
352224584,3.253271
352278855,3.253271
352333177,3.247631
352390441,3.038105
352442849,2.722229
352497136,2.602939
352549944,2.518343
352604516,2.47967
352661023,2.202417
352717577,2.204028
352775889,2.169384
352830283,2.095262
352885884,0.9049759
352942481,1.473935
353044725,1.19507
353101889,0.5503777
353158308,0.3207095
353213289,0.1579126
353270699,0.6414694
353329614,0.7107576
353393684,0.01047379
353480534,2.903557
353515442,1.080664
353551569,0.9267293
353588746,1.59962
353628256,1.864788
353661551,2.115404
353696636,2.115404
353734324,2.217725
353817027,2.457867
353858144,2.522371
353902603,2.55621
353943233,2.540096
353981630,2.529622
354023596,2.3491
354060387,2.332181
354097213,2.328959
354137310,1.62943
354174096,2.203223
354211038,2.251563
354247661,2.379716
354283249,2.430474
354322265,2.434502
354361561,2.451421
354445609,2.277395
354484936,2.287063
354522348,2.095262
354558945,1.963886
354594388,2.106541
354631488,2.084788
354669333,1.384454
354709064,0.8187182
354750494,2.344266
354790512,0.8308537
354829325,1.374786
354868044,1.193458
354906950,1.013742
354948604,1.280522
354990951,1.431183
355078279,1.489242
355118718,1.40943
355156484,1.360284
355201770,1.274076
355241100,1.261186
355283794,0.9517052
355322943,0.9106157
355362799,1.636681
355404175,0.354548
355443929,0.827631
355483958,0.662417
355525106,0.5254017
355567885,0.3682445
355612976,0.2820371
355661209,0.3199039
355760519,0.4536965
355805540,0.4093339
355846297,0.6390524
355885515,0.8421332
355927953,0.9186725
355970876,1.36834
356011548,1.276493
356054284,1.583507
356093802,1.762417
356136993,1.892181
356180255,1.857537
356221862,1.942939
356266276,1.954218
356307751,1.954218
356349593,1.967109
356438138,1.960664
356481905,2.008199
356525519,2.004976
356569445,1.886541
356613217,1.937299
356655692,2.041231
356700188,1.81962
356743876,2.308011
356788351,2.222559
356834204,2.098485
356878745,2.203223
356921752,2.305594
356965797,2.357963
357012783,2.284646
357063278,2.390996
357155809,2.190332
357199318,2.271755
357243434,2.266871
357288258,2.187109
357335180,2.087205
357376190,3.157395
357418145,1.734219
357462603,1.966304
357509450,1.705214
357556268,1.375592
357609648,1.491659
357657058,1.477157
357707243,0.9758755
357750843,0.01208515
357792818,0.01047379
357886065,0.01127947
357932406,0.01127947
357978781,0.01530785
358023531,1.785782
358066855,2.238672
358113853,3.183983
358160933,2.644028
358205458,2.562655
358252654,2.500618
358297593,2.546542
358343661,2.648057
358387094,2.612607
358433226,2.48531
358479361,2.503841
358526181,2.465924
358623289,2.476448
358672711,2.373271
358719974,2.401469
358766084,2.379716
358812967,2.28948
358860054,2.332181
358908978,2.327347
358957791,2.271755
359005280,2.28948
359055535,2.130712
359102562,2.179858
359159351,2.035592
359207746,1.996919
359256219,1.829288
359303533,1.834928
359399900,1.614928
359450810,1.490048
359498836,1.116919
359546773,1.018576
359596318,0.5423208
359645713,0.9654017
359699379,1.005685
359755937,0.9879606
359807568,1.095166
359859800,1.002463
359908641,1.019382
359954501,0.989572
360005024,1.037963
360053047,1.080664
360103439,1.253935
360203060,1.188624
360250398,2.157299
360300551,0.9927947
360350978,1.482797
360399726,1.668153
360452483,1.70602
360501892,1.811563
360551698,1.81962
360599034,1.955024
360649034,1.969526
360698874,1.930854
360750615,2.034786
360801566,2.177441
360853920,2.111376
360903380,2.311234
361002333,2.49659
361052070,2.293509
361102918,2.36038
361156413,2.341849
361209512,2.426445
361261327,2.453838
361315529,2.356352
361369363,2.356352
361428175,2.42564
361481748,2.343461
361535283,2.367631
361588317,2.387773
361641617,2.622275
361695420,2.038814
361747384,2.239478
361848704,2.23545
361899757,2.394218
361954128,2.42564
362009702,2.464312
362069608,2.563461
362124565,2.51512
362180045,2.428057
362232964,2.391801
362282831,2.334598
362337320,2.266065
362392081,2.000142
362445055,2.174218
362496996,2.004976
362549459,2.003365
362603730,1.988057
362705584,2.311234
362758354,2.137157
362814151,2.046871
362867843,2.038009
362923432,1.971138
362974897,1.735024
363030824,1.615734
363084942,0.9879606
363138941,1.523081
363195000,1.427961
363251736,1.386065
363305230,1.487631
363359109,1.411041
363413959,1.247489
363469199,1.228908
363576678,1.057299
363635120,1.201515
363688679,1.066967
363746787,1.951801
363801741,0.962179
363865502,1.29019
363921658,1.334502
363979087,1.411041
364036137,1.334502
364093168,1.373175
364152259,1.321611
364205241,1.349004
364289798,1.382037
364326704,1.4336
364365134,1.377203
364455382,2.624692
364497947,1.161231
364537207,1.598814
364573231,1.687489
364607474,1.81398
364645207,1.863983
364680357,1.919574
364715530,1.838151
364750552,1.921186
364784419,1.971138
364823008,1.943745
364860725,1.902655
364898435,1.880902
364937465,1.856732
364973221,1.854264
365058453,1.82526
365093972,1.813175
365132859,1.679432
365170084,1.181373
365206220,1.891376
365244535,1.859954
365282490,1.888959
365319330,1.838151
365356369,1.811563
365396487,1.842985
365434785,1.861565
365476131,1.840568
365516014,1.841373
365554637,1.851847
365594143,1.828483
365682422,1.875262
365727456,1.963886
365767740,1.802701
365806617,1.829288
365844982,2.806825
365884248,1.373175
365924839,1.806729
365964164,1.763223
366002247,1.76564
366044445,1.809146
366088947,1.805923
366136472,1.744692
366180289,1.785782
366224353,1.871234
366263860,1.767251
366349906,1.751138
366392821,1.747109
366434289,1.657679
366474926,1.598814
366516278,1.73019
366553933,0.7897139
366595411,1.712465
366635501,1.722939
366676376,1.739858
366719378,1.774502
366759186,1.790616
366800397,1.76
366839728,1.753555
366881052,1.769668
366922170,1.702797
367007864,1.787393
367049935,1.821231
367094854,1.887347
367135648,1.882513
367176894,1.89621
367221032,2.406304
367263269,1.616539
367306131,2.040426
367349949,1.996919
367392646,1.913129
367436248,1.870428
367480121,1.884124
367532099,1.863983
367575481,1.78981
367620550,1.743886
367711845,1.739052
367755814,1.685878
367802124,1.757583
367843507,1.672181
367885732,1.631847
367929390,1.93891
367975626,0.7953537
368027279,1.436017
368075078,1.51019
368123112,1.531138
368165746,1.555308
368206873,1.556113
368253645,1.446541
368299242,1.478769
368341980,1.529526
368432010,1.626207
368476079,2.540096
368522897,2.90114
368569406,2.915642
368613990,2.902751
368660612,3.247631
368704060,3.227489
368748038,3.167063
368792920,3.219432
368838681,3.215404
368883541,3.223461
368929119,3.220238
368975813,3.163035
369025487,3.187205
369073966,3.039716
369168339,3.104221
369216282,3.123557
369262569,3.226683
369309509,3.119529
369358898,3.249242
369405486,3.217821
369452965,2.939812
369504011,2.828578
369557619,2.708533
369606061,2.628721
369654522,2.424028
369702642,2.275784
369750906,2.25398
369799409,2.031563
369846605,2.117015
369941915,1.872845
369990998,1.695546
370042733,1.376397
370098628,0.9355916
370150581,0.821941
370202775,0.68981
370247710,0.6124147
370292922,0.4681987
370343053,0.3126528
370389937,0.2836484
370436976,0.3392401
370484529,0.4020829
370531187,0.4488625
370581574,0.4085283
370631195,0.5568231
370727837,0.8066331
370779992,0.6769192
370828533,0.9694301
370876501,0.4867292
370923645,1.188624
370973515,1.28455
371021448,1.386065
371071297,1.625402
371121150,1.481186
371172705,1.51019
371224167,1.586729
371273270,1.62943
371325114,1.652039
371375279,1.686683
371425845,1.834122
371528653,1.856732
371578790,1.763223
371630220,1.812369
371682005,1.789004
371740248,1.821231
371789590,1.967915
371841913,1.917157
371892172,1.953413
371943963,1.89621
371996212,1.863177
372045056,1.854264
372096084,1.821231
372150399,1.870428
372205859,1.763223
372266778,1.844596
372370915,1.714882
372427082,1.229714
372478063,1.699574
372527269,1.86076
372583693,1.822037
372637475,1.734219
372690808,1.810758
372742021,1.727773
372793852,1.794644
372847464,1.764028
372901015,1.701991
372953769,1.731801
373009449,1.893793
373061242,1.757583
373113176,1.867205
373214657,1.859149
373268331,1.982417
373323220,1.859954
373377125,1.886541
373429286,1.963886
373485675,1.882513
373541160,1.801895
373595326,1.87929
373651255,1.925214
373705364,1.811563
373760165,1.753555
373815833,1.864788
373870386,1.892987
373927310,1.516635
373986159,1.92038
374099651,1.837345
374153044,1.880096
374210082,1.876068
374263503,1.732607
374319731,1.645544
374376503,1.695546
374430642,1.710048
374485642,1.722133
374543686,1.48602
374602813,1.367535
374667412,1.104834
374727118,1.816397
374787371,1.755972
374842911,1.665736
374895944,1.693129
375001902,1.653651
375057444,1.627013
375113055,1.807535
375197470,1.802701
375234981,1.768862
375271600,1.772085
375309155,1.723745
375347772,2.31929
375382616,1.22488
375417588,1.685072
375451156,1.757583
375487887,1.732607
375523945,1.660096
375560742,1.655262
375598768,1.642321
375685454,1.732607
375722134,1.688295
375758458,1.686683
375796413,1.685878
375833738,1.71891
375873871,1.747915
375914146,1.820426
375951490,1.777725
375991611,1.750332
376028605,1.618956
376074278,0.8945022
376113473,1.705214
376152941,1.756777
376191896,1.779336
376230963,1.777725
376317043,1.686683
376352218,1.722939
376392095,1.763223
376433038,1.738247
376475223,1.722939
376522687,1.784976
376564256,1.743886
376607119,1.805923
376645719,1.640709
376681595,1.532749
376722558,1.386871
376761053,1.270854
376799767,1.397345
376837193,1.47474
376878228,1.389288
376968464,1.334502
377007828,1.274076
377050267,1.236965
377089485,1.28455
377130767,1.236965
377168733,1.216017
377210056,1.220046
377249619,1.257963
377291125,1.311138
377332587,1.381231
377375734,1.299052
377415780,1.171705
377455005,0.8638865
377499358,1.218434
377541457,1.383648
377632246,1.087109
377673044,1.174122
377713572,1.228908
377755960,1.422321
377800487,1.566587
377849103,1.324028
377890556,1.521469
377933858,1.763223
377976916,1.772891
378018921,1.50455
378062800,1.652845
378104704,2.392607
378148529,1.37962
378192510,1.996919
378237768,1.874456
378337396,2.021895
378384195,1.858343
378430091,2.067063
378472680,2.049288
378513433,1.992891
378557853,1.714882
378600243,1.589952
378644680,2.065452
378685822,2.057345
378730868,2.169384
378775010,2.436919
378817614,1.73019
378863850,1.02905
378907136,1.893793
378950573,2.589242
379041632,2.430474
379086005,2.681946
379128719,2.598105
379171442,2.685168
379216898,2.554598
379263154,2.143603
379308892,2.407109
379352709,2.427251
379396433,2.181469
379442994,2.197583
379490816,1.797061
379537113,2.102513
379581998,2.019478
379629624,2.104125
379674132,1.32564
379778225,1.453793
379824972,1.537583
379872046,1.199904
379918640,1.302275
379964301,1.016159
380011405,0.6640284
380055544,0.01289082
380100531,0.01208515
380148655,0.01047379
380198662,0.01289082
380253145,0.01047379
380304000,0.01047379
380354894,0.01289082
380403111,0.008862439
380448989,0.01530785
380543590,1.502133
380591874,2.062179
380637535,2.233838
380683130,3.228295
380732091,3.253271
380781240,3.253271
380828740,3.254076
380879195,3.254882
380926431,3.252465
380974043,3.252465
381021802,3.254882
381069298,3.253271
381117119,3.255688
381166619,3.257299
381216127,3.252465
381317654,3.254076
381365696,3.251659
381414517,3.231518
381463300,2.980096
381514348,2.983319
381564764,2.86564
381613359,2.886587
381661501,2.541708
381712311,2.523177
381764551,1.897015
381822524,2.244312
381870566,2.304788
381921633,2.029146
381972311,1.993697
382022820,1.643932
382119601,1.04602
382167304,0.7647379
382217948,0.4367773
382268192,0.2143603
382322320,0.01047379
382380713,0.0136965
382435275,0.01289082
382491005,0.01289082
382541164,0.01047379
382589747,1.329668
382643386,0.2490044
382693514,0.4802838
382743938,0.524596
382794467,0.8461616
382847507,0.9541222
382949046,1.669764
382999583,1.832511
383054058,2.037203
383104466,1.989668
383156846,2.25962
383207978,2.489338
383259729,2.61019
383310551,2.765736
383363130,2.592465
383416836,2.003365
383474529,3.059858
383525966,2.834218
383584867,3.004266
383638546,3.013935
383691469,3.247631
383792783,3.250048
383845417,3.244408
383898556,3.029242
383952575,3.141282
384005249,2.828578
384066687,2.765736
384120747,2.602133
384175801,2.57474
384230439,2.124266
384285136,2.04526
384342268,1.877679
384396066,1.876873
384449665,1.598814
384507902,0.9992401
384567039,0.5076768
384678204,0.2095262
384735696,0.1063493
384794303,0.01127947
384848675,0.01127947
384901178,0.01289082
384957779,0.01047379
385012089,0.01208515
385068349,0.384358
385123477,0.01047379
385180171,0.1772488
385237133,0.4536965
385294195,0.7913253
385352354,1.014548
385407447,1.216017
385462604,1.393317
385566373,1.602037
385621666,1.626207
385677054,1.67057
385734303,1.827677
385791726,1.845402
385852015,1.90185
385936042,1.9091
385973668,1.988057
386008662,1.9091
386046059,1.919574
386083638,1.958247
386117826,2.037203
386156455,2.001753
386195671,2.005782
386238883,1.992891
386324088,1.922797
386362308,1.929242
386399094,2.000142
386436843,2.03398
386475780,2.063035
386512724,2.058151
386551000,2.029146
386592188,2.073509
386634249,2.062179
386680616,1.950996
386720755,1.8664
386762533,1.223269
386799744,2.002559
386835430,2.117821
386875783,2.060568
386961251,1.943745
387000292,1.951801
387036200,1.99853
387075234,2.058151
387115036,2.033175
387152413,1.993697
387191857,1.938105
387228178,1.824454
387266397,1.79545
387302255,1.788199
387341630,1.805118
387379130,1.806729
387416559,1.811563
387456018,1.863983
387499137,1.814786
387587321,1.683461
387626720,2.571517
387666867,1.235354
387707811,1.583507
387747924,1.620568
387787778,1.647155
387829835,1.687489
387868415,1.598814
387916935,1.548057
387960044,1.477157
388001609,1.453793
388043012,1.51019
388083265,1.471517
388125101,1.402179
388165101,1.374786
388254943,1.550474
388298487,1.548862
388344458,1.522275
388394610,1.506967
388441240,1.512607
388485863,2.016255
388528614,1.418293
388568163,1.576255
388610867,1.618956
388653975,1.73583
388695259,1.788199
388735067,1.793033
388779013,1.709242
388822885,1.679432
388863964,1.635875
388957013,1.693129
388998037,1.664124
389039192,1.631847
389080767,1.690712
389123015,1.635875
389165477,1.644738
389206659,1.558531
389250965,1.602037
389295666,2.622275
389338766,1.232937
389381730,1.697157
389424853,1.658485
389469588,1.706825
389513733,1.805118
389557257,1.764834
389652108,1.704408
389699946,1.718105
389750122,1.643127
389797049,1.705214
389842688,1.654456
389887773,1.656873
389932049,1.743081
389979197,1.750332
390023349,1.693129
390067201,2.00417
390113520,1.227297
390162903,1.747915
390215707,1.852653
390265115,1.721328
390315260,1.872039
390408004,1.698769
390451010,1.741469
390497447,1.75436
390543978,1.701991
390590563,1.67621
390635804,1.702797
390681791,1.744692
390728818,1.618956
390773339,1.652039
390821139,2.146825
390866944,1.092749
390913055,1.677821
390959314,1.772891
391005692,1.705214
391050918,1.747915
391147068,1.664124
391194913,1.768057
391246284,1.668153
391293158,1.76
391339999,1.743081
391386134,1.678627
391434427,1.743886
391483003,1.695546
391529669,1.658485
391579853,2.381328
391626976,1.223269
391683658,1.674598
391731034,1.680238
391780491,1.703603
391826881,1.631847
391924918,1.593175
391976085,1.622179
392023885,1.593175
392071634,1.596397
392120053,1.57545
392173504,1.552085
392230769,1.324028
392283528,1.318389
392336567,0.8356878
392385254,1.33128
392432132,1.509384
392484011,1.628624
392534544,1.595592
392584889,1.547251
392633172,1.574644
392729428,1.637487
392780385,1.727773
392829775,1.622985
392883228,1.689101
392932434,1.556919
392983901,1.635875
393031838,2.576352
393083528,1.618151
393132495,1.714882
393182979,1.777725
393236318,1.78417
393290774,1.703603
393341159,1.839762
393391783,1.734219
393444123,1.709242
393543394,1.710048
393595649,1.768862
393645597,1.639904
393699594,1.716493
393755509,0.9976288
393813675,1.738247
393866818,1.735024
393919155,1.82526
393971319,1.755166
394024396,1.704408
394079310,1.760806
394131978,1.66493
394183753,1.621373
394236916,1.652845
394294105,1.63507
394401734,1.621373
394458542,1.668958
394514070,1.118531
394568147,1.550474
394618959,1.713271
394674833,1.646349
394729310,1.622179
394781782,1.530332
394833901,1.513413
394890316,1.470712
394944535,1.250712
394996496,1.348199
395052977,1.362701
395105159,1.223269
395157578,0.9460655
395258541,0.01127947
395312408,0.01208515
395365314,0.01208515
395419770,0.0136965
395474391,0.01208515
395532071,0.01047379
395586387,0.009668117
395642759,0.7671549
395697228,2.027535
395753228,2.264454
395808466,2.627915
395862400,3.136448
395921108,3.242797
395976654,3.250854
396038855,3.254882
396143789,3.252465
396199670,3.256494
396255470,3.253271
396312067,3.252465
396369254,3.252465
396423674,3.253271
396478981,3.254076
396537408,3.254076
396598341,3.255688
396663316,3.251659
396723617,3.23474
396813253,2.843081
396845764,2.771376
396882925,2.635166
396920328,2.477253
397004920,2.065452
397039923,2.024312
397076826,1.780142
397114659,1.531943
397149966,1.208766
397188085,0.8187182
397224013,0.411751
397260199,0.1442161
397296747,0.01530785
397335182,0.01127947
397371043,0.008862439
397409416,0.01289082
397448083,0.01047379
397488121,0.01289082
397525593,0.01047379
397613070,0.01127947
397649449,0.01450217
397688461,0.01127947
397726683,0.01208515
397764534,0.01289082
397802393,0.01127947
397843390,0.01047379
397889971,0.3005677
397929937,0.7180087
397969893,1.104834
398009775,1.413458
398048274,1.709242
398090035,1.867205
398126631,1.908295
398164242,3.186399
398254679,3.252465
398298346,3.254882
398346304,3.252465
398390714,3.252465
398429557,3.252465
398466964,3.251659
398509153,3.253271
398550010,3.250854
398591024,3.255688
398630664,3.254076
398671161,3.254882
398712612,3.253271
398751560,3.252465
398794098,3.250854
398832800,3.130002
398919831,2.905168
398956865,2.730286
398997767,2.503841
399037353,2.062179
399077136,2.52076
399118600,2.244312
399164198,2.124266
399203521,2.034786
399246687,1.818009
399289715,1.557725
399332719,1.087915
399375467,0.8082445
399417180,0.5616571
399458861,0.3336004
399500202,0.1909453
399598996,0.3054017
399642460,0.1224628
399683584,0.0136965
399724560,0.0136965
399768037,0.01289082
399812853,0.01289082
399854089,1.162037
399896379,0.01208515
399940018,0.01047379
399986529,0.24981
400037303,0.6035523
400084424,0.8082445
400127253,0.7526527
400168310,0.6277729
400214605,0.6446921
400303999,1.086303
400348538,1.453793
400390278,1.62379
400432800,1.606871
400475615,1.668153
400518300,1.624596
400563928,1.473935
400604693,1.289384
400647602,1.236159
400689636,1.299858
400735467,1.558531
400778247,1.677821
400821339,1.692323
400867339,1.716493
400916282,1.639098
401008358,1.732607
401053135,1.706825
401098170,1.822037
401144497,1.84379
401190216,1.758389
401234479,1.751138
401282151,1.954218
401328796,1.807535
401384463,1.960664
401429724,2.641611
401475903,1.851847
401523313,2.067063
401570512,1.878485
401619046,2.006587
401662542,2.096068
401756896,1.909906
401804409,1.964692
401855022,1.826066
401911461,1.755166
401961074,1.856732
402007551,1.755972
402052469,1.644738
402102320,1.706825
402150588,1.464266
402198892,1.478769
402244637,2.546542
402292532,1.089526
402341672,1.349004
402388286,1.365118
402438637,1.398956
402534943,1.30872
402581527,1.419904
402628565,1.418293
402678105,1.464266
402724865,1.57545
402772744,1.507773
402819437,1.602843
402871869,1.614928
402918773,1.788199
402969347,1.657679
403017142,1.677821
403067504,1.218434
403117047,1.776114
403165020,1.830899
403215142,1.760806
403309207,1.897015
403363893,2.111376
403414691,1.951801
403465520,2.070286
403516158,1.95019
403566864,2.062179
403620676,2.111376
403670415,2.040426
403721813,2.189526
403774342,2.041231
403829696,2.921282
403886861,2.224976
403941270,2.229004
403991261,2.027535
404039705,2.10493
404140361,1.89621
404192381,1.796255
404242597,1.86076
404291295,1.689906
404343651,1.666541
404396873,1.388482
404447058,1.280522
404501272,1.121753
404551548,0.9758755
404602108,2.185498
404653004,0.7325109
404705541,1.012131
404756117,1.072607
404807788,1.236965
404861355,1.296635
404964230,1.610899
405016433,1.650428
405068850,1.713271
405120156,1.802701
405175833,1.745498
405230178,1.776919
405282930,1.868011
405337437,2.707727
405391938,1.909906
405453800,1.882513
405508586,1.942133
405561454,1.911517
405615843,1.793838
405669441,1.840568
405724416,1.898627
405825617,1.946162
405878848,1.835733
405935356,1.835733
405992951,1.683461
406056082,1.548862
406113022,1.10564
406166764,1.641515
406219030,1.542417
406276295,1.471517
406332043,1.527915
406386057,1.472323
406437757,1.374786
406493092,1.240238
406549501,1.32564
406604051,1.316777
406708942,1.347393
406762459,1.408624
406817460,1.307109
406872691,1.471517
406927800,1.632653
406982809,1.697963
407039700,1.697157
407096740,1.594786
407157813,1.65929
407213643,1.698769
407269532,1.802701
407326979,1.876068
407384373,1.868011
407441056,1.798673
407527847,2.062179
407611221,1.815592
407654357,1.792227
407693294,1.781753
407731028,1.790616
407768233,1.871234
407805638,1.856732
407845999,1.820426
407882233,1.710048
407918155,1.789004
407955686,1.714076
407997066,1.702797
408042715,1.774502
408083752,1.798673
408120601,1.741469
408155631,1.698769
408242406,1.650428
408279177,1.553697
408316006,0.8485786
408350701,1.589952
408388846,1.747915
408428053,1.779336
408464556,1.815592
408504029,1.818009
408541236,1.76
408578751,1.65929
408615622,1.672987
408652661,1.705214
408690532,1.736635
408729299,1.737441
408768079,1.764028
408860002,1.612511
408898685,1.590758
408939019,1.668153
408978626,1.645544
409020242,1.583507
409061394,1.520664
409105227,0.9694301
409145767,1.627013
409193269,1.680238
409232985,1.70038
409274046,1.695546
409313955,1.716493
409356081,1.614122
409398798,1.602843
409437408,1.618151
409526856,1.681044
409568288,1.646349
409614235,1.560142
409663185,1.632653
409706422,1.695546
409745528,1.63507
409783742,1.712465
409826810,1.620568
409869724,1.577061
409911181,2.243506
409952163,1.062939
409996416,1.611705
410040702,1.705214
410082003,1.701991
410128482,1.785782
410220285,1.76
410261567,1.772891
410302994,1.782559
410346244,1.809952
410387594,1.797867
410430842,1.768862
410473892,1.67057
410521573,1.774502
410563869,1.792227
410609538,1.814786
410653655,1.666541
410698190,1.615734
410743724,2.266065
410789454,1.526304
410833959,1.663319
410934865,1.730996
410978950,1.706825
411023578,1.758389
411067736,1.742275
411110988,1.717299
411158726,1.621373
411202047,1.677821
411246023,1.730996
411292293,1.651234
411340782,1.666541
411392693,1.663319
411440804,1.641515
411484419,1.614928
411528251,1.350616
411575109,0.7937422
411669517,1.563365
411714844,1.506162
411759068,1.537583
411804934,1.560142
411850377,1.32
411894906,1.249906
411942714,1.419098
411987026,1.405402
412031755,1.191041
412076512,1.07019
412123160,1.041991
412167861,1.041186
412211757,1.149146
412259850,1.137867
412312460,1.208766
412406145,1.548057
412454746,1.671376
412501178,1.698769
412550224,1.823648
412598608,1.764028
412650221,1.909906
412697185,1.816397
412751059,1.887347
412799286,1.809146
412849035,1.92602
412896987,1.840568
412943873,1.929242
412995141,1.909906
413041802,1.861565
413089378,1.948579
413187229,2.019478
413240767,2.004976
413297270,1.980806
413348976,2.150048
413396402,1.961469
413442190,1.992085
413491694,1.988862
413540022,1.881707
413587368,1.984834
413635276,1.875262
413686548,1.979194
413736383,1.816397
413784413,1.917157
413837964,1.709242
413885657,1.759194
413982245,1.743886
414030638,1.799478
414082627,1.806729
414131256,1.831705
414181551,1.693934
414233469,1.641515
414287977,1.701991
414336350,1.535166
414387868,1.593175
414438967,1.466683
414490561,1.479574
414542872,1.485214
414597677,1.493271
414648873,1.419904
414708264,1.42071
414810310,1.634264
414860974,1.54564
414911379,1.66493
414964363,1.689101
415019116,1.536777
415069353,1.656068
415121089,1.588341
415174240,1.592369
415230765,1.516635
415291130,1.56417
415346038,1.506967
415396642,1.52872
415446000,1.535166
415500432,1.440851
415553504,1.431989
415654678,1.418293
415705355,1.349004
415759453,1.077441
415812868,0.9855436
415865498,0.8026047
415920754,0.5737423
415974305,0.7163973
416025303,0.932369
416077532,1.020993
416131418,1.212795
416183889,1.35545
416236766,1.441657
416290059,1.622179
416347452,1.473935
416402295,1.697963
416507646,1.989668
416562628,1.949384
416618774,1.857537
416675191,1.987251
416732293,2.017867
416788788,2.102513
416850275,2.114598
416904481,2.03962
416959841,1.962275
417016565,1.995308
417071626,2.075926
417130112,2.994598
417184166,2.062179
417239860,1.945356
417296653,1.98
417404171,2.01545
417467375,2.0864
417524974,2.012227
417579137,1.921186
417632751,1.940522
417690401,2.009004
417746519,1.990474
417801901,2.001753
417856870,1.917157
417913727,1.993697
417970919,1.263603
418026088,1.994502
418085582,1.953413
418142343,1.880096
418199479,1.788199
418304001,1.797061
418362841,1.778531
418418454,1.663319
418475688,1.625402
418533068,1.544834
418594519,1.396539
418682683,0.9879606
418718474,0.7284825
418758702,0.5374868
418796159,1.164454
418835359,0.01289082
418870939,0.0749279
418916609,0.1442161
418955879,0.412607
418992983,0.6334127
419080369,0.6011353
419117676,0.712369
419158682,0.9259235
419195149,1.122559
419233597,1.236159
419270662,1.31436
419311793,1.522275
419359460,1.543223
419400017,1.679432
419437077,1.786587
419472702,1.946967
419512782,1.89621
419551845,1.971943
419590729,2.851137
419628385,1.82526
419716734,2.003365
419756185,2.004976
419796631,2.03398
419837901,2.026729
419875813,2.031563
419913028,2.130712
419951255,2.176635
419990319,2.201611
420027748,2.212085
420067630,2.234644
420107844,2.216114
420152905,2.118627
420192628,2.174218
420233196,2.13474
420275621,2.129906
420364379,2.143603
420407435,3.079194
420450009,2.135546
420496071,2.070286
420537254,2.048482
420580082,2.013033
420621001,2.021895
420661848,1.992891
420704955,2.048482
420744716,2.020284
420785433,2.021895
420825343,1.980806
420870517,1.955024
420920525,1.75436
420964684,1.780142
421054494,1.621373
421095325,1.531943
421139364,1.336113
421181880,1.236965
421224539,2.467535
421265871,0.7969649
421309524,1.26602
421354120,1.321611
421397283,1.336919
421440548,1.431183
421480898,1.41507
421523220,1.382843
421564075,1.477963
421608421,1.618151
421650394,1.693129
421743004,1.637487
421783922,1.62943
421831861,1.699574
421875235,1.644738
421917896,1.691517
421963392,1.571421
422007658,1.654456
422055566,0.9517052
422097177,1.574644
422147979,1.802701
422192640,1.809952
422239144,1.713271
422285267,1.782559
422331580,1.742275
422379407,1.641515
422473439,1.679432
422516824,1.619762
422563310,1.569004
422612008,1.672987
422665856,1.631847
422715367,1.647155
422760841,1.562559
422804954,1.633458
422853242,2.635166
422899006,1.382037
422944858,1.641515
422990402,1.789004
423038234,1.73583
423084797,1.801895
423128568,1.783365
423223526,1.760806
423267057,1.721328
423313672,1.697963
423358690,1.584312
423407008,1.706825
423451960,1.707631
423497799,1.641515
423544608,1.686683
423596263,1.585924
423645600,1.934882
423693626,1.100806
423743247,1.582701
423792645,1.745498
423843434,1.681044
423893119,1.70038
424000805,1.48602
424050700,1.683461
424099689,1.597203
424149221,1.628624
424198917,1.537583
424247439,1.547251
424293223,1.469906
424342093,1.479574
424390486,1.537583
424442942,2.025923
424500462,1.236965
424552414,1.472323
424601609,1.510996
424649450,1.667347
424700160,1.571421
424797734,1.596397
424848345,1.666541
424896297,1.614122
424946758,1.675404
424996682,1.625402
425046805,1.755166
425097295,1.727773
425146567,1.766445
425196750,1.809952
425245611,1.274882
425296206,1.816397
425343755,1.846207
425393254,1.905072
425442943,1.811563
425498442,1.757583
425599316,1.75436
425651844,1.830094
425704238,1.776919
425756995,1.746303
425808329,1.807535
425859673,1.775308
425917845,1.714882
425968406,2.050094
426019219,1.28455
426069774,1.808341
426121165,1.689101
426175799,1.731801
426225192,1.646349
426277148,1.445736
426330253,1.496493
426432841,1.29583
426492231,1.190236
426546307,1.09436
426599295,1.18379
426648924,1.398956
426703311,0.9218951
426756477,0.7550698
426809601,1.013742
426860322,0.6559716
426913909,1.099194
426968342,0.3263493
427021721,0.6535546
427076929,1.513413
427128744,1.123365
427182549,0.66
427283646,1.657679
427338515,1.67057
427390186,1.418293
427443207,0.0136965
427496611,0.9702357
427556151,1.554502
427609909,0.8783886
427664848,1.703603
427718334,1.924408
427774679,2.287063
427831079,2.324124
427887397,2.27095
427950239,2.136352
428005223,2.014644
428059919,2.594076
428160367,2.58038
428216921,2.706921
428274123,2.847915
428328174,2.943841
428383689,2.836635
428440608,2.811659
428501075,2.598911
428563667,2.664976
428621491,2.614218
428677600,2.470758
428730269,2.491755
428787682,2.399858
428845570,2.221753
428903568,1.54564
428959584,2.22417
429071226,2.0864
429127387,1.969526
429183540,1.881707
429243082,1.780142
429299065,1.799478
429356214,1.603648
429411634,1.36834
429468934,1.068579
429523636,0.85019
429580754,0.01047379
429637159,0.01289082
429698704,0.01127947
429788335,0.2336965
429826333,0.3811353
429865262,0.4625589
429952455,0.9259235
429989754,0.9436484
430033312,0.9911834
430071223,1.108862
430109163,0.989572
430146937,1.013742
430183498,1.13545
430223171,1.815592
430259619,0.8840283
430295412,1.350616
430335104,1.585924
430375822,1.638292
430420942,1.650428
430463751,1.715688
430502597,1.687489
430588943,1.814786
430627841,1.770474
430666765,1.747915
430705794,1.762417
430743356,1.748721
430785731,1.834928
430822442,1.755166
430861398,1.764834
430902662,1.976777
430940646,1.09436
430980476,1.82526
431017971,1.928437
431057092,1.968721
431094628,2.001753
431131839,2.014644
431220188,1.98564
431264318,1.992085
431304789,1.976777
431346701,1.977583
431387209,2.038814
431428876,2.029146
431471595,2.106541
431518523,2.088817
431561113,2.109764
431604018,1.95019
431644970,2.063035
431685731,2.896306
431731037,2.258009
431770906,2.21128
431810482,2.19436
431901873,2.173413
431946966,2.178247
431996890,2.219336
432042689,2.11621
432082370,2.076731
432121497,2.029146
432165136,2.027535
432209340,2.060568
432252436,2.068675
432293752,2.046871
432336588,1.95019
432381262,1.824454
432424275,1.805923
432469915,1.788199
432512794,2.469952
432609995,1.589952
432653065,1.615734
432694697,1.519052
432738102,1.437629
432781846,1.312749
432829497,1.18943
432873604,1.054076
432917308,0.88
432961326,0.4561135
433005530,0.2618952
433049682,0.2336965
433101494,0.2087205
433147342,0.3746899
433190456,0.4641703
433235005,0.7131746
433331226,1.059716
433377165,1.282133
433425006,1.437629
433469201,1.598814
433514253,1.726967
433560550,1.589146
433607826,1.637487
433661591,1.698769
433710868,1.812369
433754621,1.822037
433796631,1.872039
433843642,1.767251
433889066,1.888959
433936248,1.868817
433979481,1.863177
434075231,1.568199
434121609,1.888959
434167959,1.900238
434216865,2.00981
434261271,1.917157
434307834,1.951801
434353375,2.007393
434400060,1.943745
434446484,1.888959
434493290,1.93891
434544058,1.837345
434590966,1.899432
434637859,1.863983
434686934,1.859954
434737094,1.810758
434836041,1.226491
434888685,1.703603
434938183,1.734219
434984769,1.660902
435032134,1.79545
435080823,1.645544
435128449,1.672987
435179596,1.683461
435226401,1.687489
435273003,1.727773
435322728,1.667347
435375959,1.755972
435433327,1.835733
435486230,1.716493
435534348,1.762417
435629787,1.980806
435680109,1.942939
435730951,2.018672
435779922,1.977583
435827691,1.99853
435878908,2.013838
435927643,1.984834
435976383,2.028341
436026333,1.893793
436075983,1.975166
436126153,1.796255
436176235,1.859149
436224741,1.702797
436274807,1.764834
436325130,1.245072
436429463,1.663319
436480266,1.542417
436531370,1.51019
436583518,1.323223
436636738,1.26038
436686503,1.220851
436743845,0.6148317
436794898,0.3891921
436844632,0.2006134
436898862,0.4488625
436950076,0.4367773
437001263,0.6132204
437055667,0.71962
437104862,1.041991
437156605,1.278105
437257354,1.357061
437314755,1.477157
437374220,1.615734
437428937,1.692323
437478323,1.727773
437528942,1.712465
437582985,1.748721
437637255,1.747915
437689097,1.79545
437740677,1.280522
437794113,1.869622
437847308,1.82526
437899012,1.872039
437953528,1.971943
438005045,2.181469
438110895,2.484504
438162743,2.292703
438213698,2.469952
438267144,2.653697
438322494,2.639194
438381365,2.756873
438434767,3.243603
438490357,3.057441
438546237,2.821327
438601779,2.793935
438657822,2.822133
438718860,2.680284
438773433,2.752039
438826759,2.55057
438882299,2.415166
438985571,2.295926
439041549,2.139574
439098468,2.123461
439150972,2.103319
439206076,1.967915
439262701,1.769668
439321656,1.228103
439385565,0.6551659
439443994,0.5592401
439497962,0.5342641
439550300,0.4859236
439607443,0.5052598
439663388,0.5439322
439720860,0.5995239
439775363,0.6430808
439883062,0.6954498
439939627,0.5914671
439993625,0.5382925
440052936,0.5004257
440107743,0.411751
440163772,0.3062074
440220421,0.411751
440275709,0.444834
440332585,0.4134127
440389657,0.5318471
440453601,0.5544061
440511076,0.5310414
440568809,0.5181506
440626299,0.52943
440683947,0.5423208
440824484,0.5568231
440861627,0.551989
440896768,0.5544061
440934881,0.5560174
440971228,0.5681026
441009935,0.574548
441051648,0.5713253
441086731,0.5737423
441124526,0.5656855
441164912,0.5672969
441207632,0.5721309
441255391,0.5560174
441297578,0.551989
441333381,0.5672969
441370443,0.5753536
441461501,0.5536004
441500000,0.5560174
441538610,0.5511833
441575817,0.5552117
441614785,0.5624628
441653948,0.5624628
441691267,0.574548
441731534,0.5713253
441768884,0.574548
441806420,0.5721309
441845871,0.5713253
441882792,0.5560174
441922393,0.5544061
441962736,0.5560174
442008426,0.576965
442098419,0.5503777
442139609,0.5544061
442181345,0.5552117
442224309,0.5616571
442271114,0.5737423
442311405,0.5713253
442349597,0.5753536
442391711,0.574548
442432044,0.5721309
442474087,0.5632685
442519225,0.551989
442557528,0.5527947
442598682,0.5527947
442640973,0.5552117
442685686,0.5681026
442786034,0.5640741
442828647,0.574548
442870336,0.574548
442910285,0.574548
442951833,0.5705195
442993505,0.5681026
443035660,0.5552117
443076469,0.5568231
443119130,0.551989
443161895,0.5544061
443204720,0.5632685
443248634,0.5721309
443291359,0.5697139
443334207,0.5608515
443376374,0.5511833
443467308,0.5616571
443509980,0.5721309
443554693,0.5560174
443603687,0.5503777
443648859,0.5632685
443692957,0.5632685
443738325,0.5503777
443781716,0.5536004
443831156,0.5689082
443876839,0.551989
443918617,0.5503777
443963453,0.5552117
444008823,0.5737423
444054386,0.5584344
444100549,0.549572
444193938,0.5584344
444237388,0.5527947
444282247,0.5544061
444330729,0.5681026
444384121,0.5624628
444433202,0.5753536
444476518,0.5568231
444520053,0.5544061
444565835,0.5689082
444611019,0.5721309
444655353,0.5584344
444699250,0.5584344
444744995,0.5656855
444790782,0.5689082
444836676,0.5544061
444936266,0.551989
444980356,0.551989
445025606,0.5672969
445072040,0.576965
445116636,0.5527947
445161285,0.5536004
445207570,0.5729366
445260125,0.5552117
445305174,0.5632685
445352455,0.5721309
445400785,0.5511833
445446525,0.5689082
445501422,0.5536004
445550612,0.576965
445596013,0.5560174
445696078,0.5511833
445745112,0.5600458
445794251,0.5616571
445845155,0.5608515
445891559,0.5697139
445939815,0.5479607
445986499,0.5681026
446038505,0.5463493
446094536,0.5584344
446147103,0.5624628
446193852,0.5616571
446238399,0.5511833
446286099,0.5681026
446336585,0.549572
446385591,0.5640741
446482894,0.5463493
446532743,0.5672969
446582359,0.5463493
446631832,0.5705195
446683057,0.5487663
446732436,0.574548
446782005,0.549572
446830061,0.574548
446877955,0.5536004
446927782,0.5681026
446978076,0.5487663
447034120,0.5648798
447084619,0.5576287
447136496,0.5511833
447188547,0.5721309
447292230,0.5689082
447348761,0.5705195
447398477,0.5455436
447447962,0.5689082
447500584,0.547155
447551225,0.5705195
447602371,0.549572
447657854,0.5560174
447707521,0.5697139
447759019,0.5511833
447810793,0.5721309
447867942,0.5681026
447927049,0.5656855
447980725,0.549572
448030065,0.5689082
448128252,0.5656855
448181569,0.5511833
448234995,0.5616571
448288598,0.5672969
448338462,0.5511833
448391410,0.5681026
448443711,0.5479607
448496072,0.5568231
448550730,0.5705195
448603726,0.5503777
448654551,0.5624628
448709427,0.5689082
448761045,0.551989
448814435,0.5689082
448876602,0.551989
448987625,0.5616571
449041511,0.5527947
449094420,0.5689082
449150270,0.5713253
449205112,0.5592401
449266031,0.5616571
449319430,0.5503777
449372615,0.5697139
449427367,0.5672969
449483313,0.549572
449538232,0.5544061
449594550,0.5672969
449647892,0.5656855
449702755,0.5503777
449757865,0.551989
449866150,0.5616571
449928881,0.5672969
449984708,0.5560174
450038518,0.5552117
450092618,0.5697139
450149774,0.5689082
450205454,0.5511833
450260955,0.5536004
450315311,0.5624628
450372137,0.574548
450428582,0.5648798
450484772,0.5544061
450543569,0.5503777
450599592,0.549572
450656332,0.5600458
450763683,0.547155
450818635,0.551989
450875372,0.5624628
450933848,0.5697139
450996787,0.5552117
451052494,0.5697139
451110925,0.5697139
451168121,0.5648798
451228046,0.5640741
451292856,0.5632685
451352089,0.5689082
451408297,0.5616571
451447179,0.5672969
451485849,0.5592401
451523388,0.5511833
451613438,0.5681026
451649282,0.5672969
451686788,0.5664912
451725676,0.5584344
451765950,0.5568231
451812252,0.5697139
451851501,0.5672969
451889705,0.5914671
451926148,0.5737423
451967405,0.5697139
452005911,0.5560174
452044218,0.5487663
452081299,0.5527947
452119362,0.5527947
452158319,0.5560174
452247891,0.5721309
452288085,0.5737423
452325944,0.5729366
452364207,0.5640741
452403364,0.5616571
452442817,0.5592401
452483284,0.5552117
452522907,0.5568231
452568343,0.5592401
452606728,0.5592401
452647058,0.5608515
452687150,0.5568231
452728641,0.5592401
452776896,0.5552117
452816148,0.5560174
452904466,0.549572
452944415,0.5536004
452984310,0.5560174
453028036,0.5705195
453067726,0.5713253
453110182,0.5713253
453152184,0.5697139
453195466,0.5632685
453244040,0.5527947
453289412,0.5672969
453329047,0.5640741
453368697,0.5689082
453411394,0.5713253
453454461,0.5721309
453497281,0.5576287
453586154,0.5608515
453628714,0.5721309
453671205,0.5809934
453715411,0.5721309
453759514,0.5527947
453799470,0.5503777
453841045,0.5487663
453884045,0.5487663
453925069,0.5511833
453967827,0.5608515
454010669,0.5689082
454059670,0.5503777
454103056,0.5503777
454146217,0.5584344
454190986,0.5656855
454285844,0.5527947
454334355,0.5689082
454378290,0.547155
454423792,0.5552117
454467414,0.5640741
454511569,0.5729366
454558628,0.5511833
454602910,0.5511833
454646195,0.5592401
454691522,0.5713253
454739453,0.5527947
454790295,0.5681026
454836683,0.5527947
454879949,0.551989
454923237,0.5511833
455021469,0.5503777
455067975,0.5648798
455114608,0.5697139
455158272,0.5544061
455202838,0.549572
455248490,0.5681026
455293052,0.5697139
455341118,0.549572
455384898,0.5455436
455429561,0.5648798
455475458,0.5672969
455519772,0.5527947
455565811,0.5552117
455613430,0.5705195
455664711,0.5511833
455759167,0.5479607
455805438,0.5536004
455850954,0.5721309
455897597,0.5592401
455950791,0.5689082
455999094,0.5511833
456045265,0.5527947
456093478,0.5689082
456141647,0.5527947
456192486,0.5656855
456239529,0.551989
456288783,0.5648798
456337869,0.5544061
456387817,0.5648798
456443291,0.549572
456544818,0.549572
456591259,0.5689082
456637944,0.5576287
456687504,0.5616571
456735734,0.5689082
456784171,0.5527947
456830960,0.5721309
456879947,0.5568231
456928252,0.5664912
456976427,0.5681026
457025659,0.5503777
457072160,0.5729366
457120471,0.551989
457169834,0.5656855
457217497,0.5584344
457314635,0.5648798
457365621,0.5487663
457420249,0.5544061
457469212,0.5616571
457518987,0.5527947
457568307,0.5632685
457619614,0.5503777
457677717,0.5584344
457728174,0.5632685
457778747,0.5527947
457829117,0.5681026
457879896,0.549572
457933425,0.5681026
457982568,0.5503777
458033400,0.5640741
458135491,0.5689082
458191134,0.5681026
458250692,0.5689082
458304712,0.5544061
458356214,0.5681026
458404404,0.5527947
458458513,0.5503777
458511765,0.5713253
458563364,0.5487663
458613566,0.5729366
458664741,0.551989
458717035,0.5592401
458769679,0.5689082
458823497,0.5487663
458872907,0.5753536
458975351,0.5681026
459027349,0.5600458
459078511,0.5552117
459131489,0.5681026
459183792,0.5511833
459241987,0.5503777
459297000,0.5632685
459350365,0.5656855
459403987,0.5511833
459457406,0.5640741
459518530,0.5568231
459571353,0.5713253
459626847,0.5552117
459679635,0.5527947
459734941,0.5664912
459842891,0.5463493
459897346,0.5608515
459951739,0.5689082
460007882,0.5584344
460066012,0.5503777
460127424,0.5576287
460183409,0.5511833
460236401,0.5681026
460289757,0.5681026
460346115,0.551989
460401108,0.5503777
460457827,0.5608515
460511759,0.5705195
460567453,0.5560174
460622360,0.549572
460726853,0.5503777
460783679,0.5487663
460837610,0.5632685
460893624,0.5713253
460948600,0.5624628
461004743,0.5527947
461060804,0.551989
461117033,0.5689082
461177325,0.5624628
461233138,0.5681026
461289833,0.5672969
461347184,0.5552117
461406552,0.5527947
461470664,0.5672969
461529282,0.5672969
461639843,0.551989
461698347,0.5592401
461756818,0.5697139
461818234,0.5608515
461874023,0.574548
461931381,0.5697139
461989769,0.5672969
462089451,0.5681026
462130658,0.5672969
462168191,0.5616571
462203966,0.5527947
462242962,0.5560174
462280423,0.5584344
462317945,0.5640741
462355798,0.576965
462440703,0.5552117
462478631,0.5608515
462516660,0.5705195
462557278,0.5705195
462593672,0.574548
462632288,0.5753536
462669900,0.5713253
462705923,0.551989
462744429,0.5527947
462782341,0.5511833
462825105,0.5527947
462864180,0.551989
462902952,0.551989
462941243,0.5544061
462980266,0.5544061
463078441,0.5568231
463120731,0.5560174
463161991,0.551989
463203075,0.5511833
463243932,0.5527947
463286843,0.5544061
463328166,0.5552117
463369708,0.5672969
463408413,0.5632685
463455106,0.5705195
463499225,0.5568231
463537890,0.5672969
463574736,0.574548
463616624,0.5721309
463656943,0.5705195
463743716,0.549572
463783052,0.5527947
463824151,0.5511833
463865504,0.5511833
463906623,0.5511833
463950468,0.5689082
463989722,0.5689082
464031135,0.5697139
464071671,0.5729366
464111527,0.5705195
464152058,0.5713253
464192670,0.5721309
464238271,0.5616571
464280083,0.5527947
464323949,0.5487663
464416254,0.5697139
464458609,0.5616571
464507846,0.5600458
464552289,0.5737423
464596833,0.5705195
464641277,0.5527947
464684396,0.5536004
464731546,0.5721309
464773019,0.5737423
464815340,0.5713253
464858828,0.5584344
464910028,0.5672969
464956455,0.5681026
464998609,0.5576287
465040807,0.5536004
465137115,0.5632685
465180016,0.549572
465225484,0.551989
465268198,0.5632685
465314097,0.5697139
465358763,0.5568231
465403189,0.5479607
465448928,0.5672969
465491542,0.5697139
465536499,0.5672969
465579786,0.5503777
465622919,0.5487663
465669323,0.5737423
465714494,0.5737423
465764554,0.5511833
465858182,0.5568231
465903354,0.5527947
465950539,0.5689082
465997557,0.5592401
466048883,0.5721309
466094734,0.579382
466142019,0.5753536
466189456,0.5842161
466235923,0.5809934
466286330,0.5737423
466330927,0.5777707
466376480,0.5713253
466424021,0.5729366
466477197,0.5777707
466526485,0.5850217
466621081,0.5946898
466666060,0.5656855
466715977,0.5640741
466764269,0.5568231
466811743,0.5584344
466857965,0.5552117
466905743,0.5544061
466953738,0.5737423
467001900,0.5544061
467050939,0.574548
467097152,0.5640741
467145204,0.5576287
467193326,0.5689082
467239806,1.679432
467287106,1.638292
467386034,1.655262
467436300,1.725356
467483298,1.697963
467532125,1.606871
467581194,1.679432
467632927,1.71891
467686872,1.631041
467736062,1.802701
467787057,1.587535
467835973,1.59962
467886654,0.7929366
467941259,1.729384
467989121,1.737441
468038725,1.803506
468090964,1.806729
468196071,1.872845
468250076,1.785782
468300364,1.792227
468348849,1.704408
468399625,1.797061
468449962,1.764028
468500808,1.773697
468549856,1.686683
468600636,2.624692
468651411,1.888959
468702444,1.880096
468755671,1.930854
468804555,1.854264
468853817,1.950996
468904927,1.809952
469001655,1.876873
469052692,1.830899
469104702,1.702797
469159063,1.82526
469211609,1.808341
469263198,1.689101
469316439,1.723745
469368347,0.8348822
469426463,1.618956
469480013,1.861565
469532305,1.857537
469585812,1.850236
469636628,2.145214
469692378,1.975972
469743855,1.98
469841036,2.130712
469894240,2.027535
469954781,2.072703
470011895,1.803506
470062608,1.840568
470113513,0.9992401
470167335,1.695546
470220873,1.758389
470273550,1.685878
470325638,1.547251
470379567,1.419904
470433399,1.266825
470487491,1.152369
470542756,1.074218
470595105,0.9404257
470698876,0.9984344
470750772,0.7373449
470804456,0.6132204
470857774,0.411751
470912289,0.8816113
470968968,1.143506
471022081,1.100806
471074948,1.246683
471129857,1.228103
471186086,1.37962
471246309,1.445736
471303363,1.51019
471360627,1.543223
471415797,1.753555
471471729,1.602843
471579310,1.592369
471634988,1.874456
471690809,1.815592
471747912,1.800284
471812359,1.87929
471871224,1.844596
471925607,1.831705
471980092,1.994502
472037996,1.997725
472093682,1.950996
472150392,1.935688
472205422,1.846207
472262446,2.44417
472319531,2.001753
472376563,1.999336
472485290,1.844596
472542300,1.86076
472599579,1.854264
472656915,1.814786
472712332,1.699574
472768651,1.586729
472825967,1.446541
472918227,1.487631
472955483,1.392511
472991839,1.238627
473029371,1.668153
473074432,1.402179
473113674,1.581089
473152927,1.722939
473190411,1.722133
473275578,1.81962
473316072,1.804312
473352430,1.780142
473387656,1.718105
473426888,1.725356
473473600,1.787393
473514800,1.783365
473550652,1.67621
473585885,1.643932
473626292,1.634264
473664196,1.756777
473701692,1.679432
473739131,1.726967
473778195,2.411943
473817443,1.137867
473905696,1.628624
473947413,1.65929
473986587,1.631847
474025839,1.589146
474063864,1.570616
474103577,1.579478
474143112,1.585924
474181979,1.571421
474222125,1.477157
474261969,1.418293
474302213,1.393317
474343962,1.342559
474392089,1.389288
474433949,1.584312
474476044,1.427961
474563963,0.9887663
474605473,1.563365
474649299,1.665736
474688496,1.657679
474728545,1.730996
474770659,1.756777
474819365,1.806729
474864523,1.697963
474904219,1.749526
474943959,1.746303
474986846,1.718105
475029576,1.737441
475072564,1.812369
475111686,1.845402
475154148,1.9091
475243310,1.76
475284733,1.680238
475328494,1.251517
475369866,1.847013
475411693,1.897821
475454555,1.882513
475497178,1.915546
475539813,1.891376
475582751,1.766445
475625880,1.711659
475670421,1.768057
475714145,1.827677
475757414,1.802701
475809271,1.734219
475854398,1.776114
475947787,1.693129
475992750,1.684266
476036774,1.608482
476083594,2.528817
476127606,1.29019
476171637,1.674598
476216844,1.660096
476268592,1.603648
476316759,1.674598
476358539,1.465072
476401304,1.500522
476446943,1.520664
476491338,1.568199
476536079,1.559336
476579434,1.543223
476675117,1.535972
476720414,1.615734
476765737,1.452181
476813409,1.362701
476858560,0.8663034
476902200,1.544834
476947648,1.681044
476990418,1.717299
477035828,1.811563
477081314,1.751943
477127313,1.661707
477174702,1.787393
477222455,1.706825
477271107,1.756777
477325596,1.672987
477421447,1.701186
477469472,1.757583
477515606,1.680238
477563434,1.652039
477612850,0.9468712
477659664,1.769668
477705603,1.736635
477752576,1.801089
477807951,1.744692
477857528,1.808341
477903448,1.685878
477947711,1.721328
477998118,1.761611
478045803,1.672987
478095221,1.73019
478194101,1.768862
478241432,1.708437
478289657,1.524692
478335280,1.610094
478383859,0.9581507
478432015,1.560948
478480219,1.655262
478527080,1.641515
478574103,1.75436
478622769,1.666541
478671783,1.586729
478720035,1.601231
478768980,1.569004
478818253,1.568199
478869154,1.555308
478975483,1.628624
479026350,1.498911
479076042,1.535972
479125206,2.085594
479176118,1.580284
479228685,1.681044
479276691,1.799478
479326036,1.692323
479376448,1.756777
479434144,1.741469
479488614,1.675404
479536072,1.731801
479583020,1.714882
479636303,1.772891
479685977,1.709242
479785499,1.608482
479834672,1.660096
479885535,0.8130785
479936739,1.812369
479986246,1.730996
480038753,1.809952
480088187,1.76
480137852,1.761611
480188411,1.690712
480237367,1.756777
480288890,1.661707
480341083,1.679432
480393140,1.76564
480444031,1.684266
480497461,1.818009
480599011,1.631041
480656568,1.15398
480710323,1.625402
480762796,1.652845
480816835,1.76
480869270,1.697157
480925240,1.615734
480978549,1.657679
481031637,1.677821
481085153,1.602843
481146969,1.60526
481205482,1.606065
481257281,1.759194
481309152,1.529526
481365469,1.695546
481467161,1.611705
481520735,1.660096
481572181,1.743081
481625413,1.70602
481678987,1.701991
481733509,1.780142
481788067,1.668153
481839540,1.618151
481891420,1.708437
481946174,1.647155
481998926,1.70038
482053367,1.560948
482108133,1.351421
482162249,1.026633
482216968,1.75436
482321461,1.76
482378121,1.780142
482441460,1.722939
482496882,1.764834
482554172,1.73019
482611099,1.69474
482668502,1.627819
482727121,1.668153
482781158,1.586729
482837061,1.593175
482894320,0.7824628
482958687,1.709242
483020027,1.717299
483076271,1.768057
483129893,1.757583
483236078,1.772891
483291619,1.766445
483348755,1.705214
483405807,1.70602
483462827,1.677821
483521590,1.627819
483578524,1.682655
483637990,1.146729
483694827,1.732607
483752098,1.791421
483806798,1.697157
483861556,1.690712
483917799,1.652845
484005764,1.567393
484042057,1.556113
484127169,1.53436
484165356,1.467489
484207836,1.465072
484246779,1.611705
484284547,1.447347
484321780,1.461849
484360787,2.350712
484402452,1.006491
484438734,1.54564
484475695,1.612511
484515432,1.661707
484561676,1.593175
484602888,1.678627
484639559,1.662513
484676538,1.70602
484766047,1.643932
484804541,1.677015
484843165,1.671376
484879495,1.671376
484917640,1.728579
484956869,1.789004
484995054,1.801089
485035727,1.719716
485074842,1.70602
485113129,2.35474
485154364,1.538389
485192282,1.776919
485231882,1.787393
485270086,1.818009
485308962,1.802701
485398320,1.730996
485438061,1.755972
485484789,1.710048
485526437,1.711659
485568478,1.742275
485609943,1.79545
485650017,1.78981
485694357,1.787393
485733274,1.857537
485773928,1.756777
485813627,1.770474
485861879,2.552987
485907051,1.527915
485946450,1.728579
485986153,1.731801
486080364,1.726162
486123102,1.708437
486165957,1.756777
486206697,1.749526
486248449,1.744692
486290276,1.770474
486330213,1.743886
486376313,1.638292
486416886,1.59962
486459417,1.48602
486500392,1.619762
486542997,1.401373
486583823,1.381231
486624988,1.095972
486666860,1.477963
486760034,1.587535
486802328,1.535166
486851995,1.634264
486895172,1.561753
486939993,1.499716
486984624,1.556113
487027722,1.577061
487074334,1.603648
487116390,1.606065
487160156,1.594786
487204276,1.634264
487255628,1.723745
487303704,1.683461
487346223,1.719716
487388699,1.046825
487483678,1.764028
487527913,1.856732
487572009,1.929242
487615007,1.94455
487659547,1.845402
487704768,1.809146
487746898,1.793033
487794575,1.89057
487837719,1.847013
487881955,1.782559
487925456,1.816397
487969080,1.880902
488014243,1.838956
488058287,1.829288
488102661,1.949384
488199474,1.827677
488244971,1.856732
488297280,1.963886
488344821,1.895404
488391163,1.897821
488436982,1.930048
488483577,1.859149
488533829,1.894598
488578550,1.848624
488625023,1.834122
488671772,1.878485
488727626,1.870428
488778211,1.799478
488823317,1.755166
488868620,2.538485
488967417,1.739052
489015946,1.761611
489063289,1.714076
489107746,1.710854
489154699,1.666541
489201951,1.602843
489247290,1.57545
489296340,1.539194
489343282,1.535166
489391462,1.547251
489439624,1.509384
489486082,1.610094
489535885,1.50455
489584344,1.798673
489632667,1.112085
489731646,1.946967
489781449,1.908295
489836368,1.98564
489887121,1.915546
489937827,1.98
489986704,2.007393
490037153,2.064646
490089205,2.062179
490137019,2.040426
490186422,2.062179
490236242,2.062179
490294163,2.040426
490349071,1.276493
490397096,1.977583
490443789,1.932465
490544980,1.925214
490596773,2.062179
490648507,2.005782
490696353,2.055733
490746056,1.971943
490796838,2.013838
490844622,1.867205
490896468,1.92602
490944376,1.826066
490995048,1.876873
491046136,2.095262
491097122,1.60526
491149730,2.232227
491202826,2.071092
491254169,2.1291
491356798,1.975166
491409725,1.912323
491466179,1.807535
491519511,1.749526
491573102,1.76564
491624514,1.677015
491676669,1.745498
491731567,1.65929
491781881,1.478769
491834021,1.210378
491887442,1.425544
491948591,1.610094
492006548,1.67057
492057897,1.717299
492107560,1.672987
492212585,1.76
492265724,1.679432
492318827,1.822843
492369599,2.062179
492423189,1.979194
492476220,2.196777
492527886,2.278201
492581797,2.885781
492632729,2.333793
492686400,2.092845
492740679,2.153271
492794936,2.170995
492848893,2.098485
492903382,2.030758
492958378,2.013033
493062163,1.885736
493117803,1.897015
493179964,1.876873
493236266,1.870428
493291264,1.813175
493345693,2.118627
493401831,1.633458
493459732,1.645544
493513463,1.56981
493568668,1.438434
493625343,1.177345
493689215,1.028244
493750022,0.8405218
493805767,0.7800457
493859774,0.747013
493968759,0.989572
494024708,0.9565392
494080441,1.586729
494135052,1.248295
494190431,1.814786
494247013,1.826871
494302204,1.851041
494359929,1.844596
494414652,1.936493
494470540,2.053316
494525540,1.93166
494580721,1.986445
494637543,2.051705
494694758,2.199194
494750676,2.227393
494854714,3.247631
494913250,3.250854
494976455,3.254076
495033682,3.250854
495092728,3.254076
495181443,3.250048
495221592,3.250854
495258943,3.251659
495296321,3.250048
495336214,3.246825
495382339,3.249242
495423709,3.244408
495461545,3.233129
495497589,3.134836
495538150,2.988153
495626654,2.822133
495664276,3.047773
495699944,2.561044
495738385,2.611801
495776174,2.656113
495812196,2.46834
495851782,2.44417
495890114,2.258009
495927152,2.202417
495965946,2.042037
496003084,1.891376
496043317,1.735024
496080948,1.59962
496119917,1.315972
496160728,1.211183
496251139,0.8509956
496296076,0.4891463
496337403,0.2030304
496377112,0.3972488
496418164,0.3489082
496459510,0.391609
496497891,0.4536965
496537737,0.6382467
496577386,0.6938384
496625898,0.5439322
496670195,0.5092881
496708546,0.6519432
496747380,0.6865873
496789068,0.635024
496829461,0.6914214
496920665,0.7091463
496959982,0.9218951
497001170,0.9734585
497042444,1.028244
497081096,1.021799
497122534,0.7075349
497163527,1.171705
497203820,1.267631
497245391,1.413458
497285001,1.427961
497326392,1.490048
497368157,1.470712
497409798,1.434406
497452091,1.414264
497495161,1.426349
497597125,1.498105
497641198,1.518247
497684605,1.553697
497727677,1.639904
497772040,1.594786
497813401,1.571421
497855223,1.544834
497898517,1.592369
497950802,1.741469
497999175,1.755166
498042709,1.747109
498084440,1.75436
498129435,1.842179
498174579,1.912323
498219752,1.800284
498310995,1.904266
498354049,1.91474
498398944,1.827677
498442257,1.788199
498487646,1.758389
498530816,1.711659
498575006,1.801089
498619360,1.096777
498662087,1.622985
498706339,1.643127
498751465,1.582701
498795217,1.583507
498841783,1.37962
498888359,1.333696
498943248,1.257157
499037739,0.8912794
499083128,0.852607
499128048,0.9049759
499175197,1.001657
499220702,0.7292881
499266277,0.6793363
499314443,1.633458
499369469,0.4794782
499419524,0.7131746
499463865,0.9347859
499508652,1.15398
499557357,1.381231
499605229,1.576255
499651413,1.92602
499697134,1.959858
499794951,2.141991
499841616,2.046871
499887504,2.096874
499934428,2.150048
499981056,2.093651
500027960,2.253175
500074902,2.229004
500120662,2.182275
500168158,2.213696
500216086,2.208057
500262833,2.156493
500310855,2.348295
500358784,2.233838
500414754,2.33057
500464968,2.206445
500561937,2.098485
500610376,2.185498
500660258,2.096874
500707023,2.063035
500755501,2.126683
500804390,1.81398
500861626,2.052511
500913349,2.06948
500960621,1.918769
501006258,1.892181
501059528,1.84379
501108388,1.824454
501157423,1.782559
501204382,1.70602
501252936,1.565782
501353865,1.020993
501403428,0.8896681
501453317,0.6285786
501502974,0.442417
501550165,1.755166
501600450,0.5672969
501648855,0.6640284
501699072,0.7558755
501749707,0.9194782
501799275,1.016965
501851399,1.200709
501902116,1.329668
501960784,1.620568
502013163,1.816397
502064217,1.774502
502164069,1.916352
502216433,1.956635
502266050,1.856732
502317349,1.680238
502371330,2.076731
502430325,2.100096
502485788,2.125072
502535741,2.154882
502585921,2.048482
502638969,2.071898
502690923,2.141186
502742589,2.052511
502792052,2.130712
502843362,1.967109
502895718,2.112987
502998775,1.917157
503054286,1.498105
503104427,1.805923
503155607,1.878485
503208869,1.815592
503260479,1.672181
503313340,1.457821
503366982,1.205544
503419347,1.100806
503474237,0.8751659
503529310,0.334406
503590643,0.01289082
503643520,0.0136965
503697551,0.01289082
503751173,0.0136965
503853355,0.008862439
503905897,0.01127947
503959180,0.5664912
504015335,1.060522
504077415,1.421515
504135969,1.790616
504189013,1.906683
504240234,1.964692
504297754,2.089622
504350825,2.213696
504405611,2.185498
504458838,2.253175
504513486,2.432085
504568213,2.812465
504621024,2.590854
504727525,2.855972
504783031,2.774598
504835990,2.889054
504891975,2.998627
504946152,2.918864
505000311,2.829384
505056322,2.981707
505109746,2.902751
505165965,2.805214
505223280,2.67545
505285662,2.887393
505342204,2.519148
505399078,2.432891
505457013,2.58602
505513879,2.55057
505616915,2.346684
505673696,2.331376
505730250,2.217725
505794908,2.158105
505856048,2.064646
505911674,1.975972
505967371,1.774502
506026063,1.592369
506083541,0.7188144
506170609,1.203127
506208036,1.176539
506242685,1.059716
506278578,1.065356
506314695,0.9589563
506351199,0.8203296
506436680,0.7719891
506472621,0.664834
506508678,0.5826047
506546306,0.3706615
506582792,0.327155
506619049,0.01127947
506657119,0.009668117
506695501,0.0136965
506741342,0.01289082
506779869,0.01127947
506817867,0.01127947
506856129,0.01047379
506895097,0.01047379
506932296,0.0136965
506971262,0.01047379
507058346,0.01530785
507104708,0.01289082
507147919,0.01127947
507185473,0.008862439
507223556,0.01047379
507264506,0.01047379
507304245,0.01127947
507340675,0.009668117
507382405,0.01127947
507422547,0.01208515
507461163,0.01127947
507502269,0.01047379
507540647,0.01127947
507579177,0.01127947
507619686,0.01127947
507708145,0.01289082
507747755,0.0136965
507786322,0.01208515
507827100,0.01047379
507865601,0.01289082
507907901,0.01127947
507954178,0.009668117
507995435,1.343365
508037096,0.01127947
508078149,0.009668117
508119811,0.01208515
508159704,0.799382
508199733,0.01127947
508243143,0.01127947
508292278,0.01289082
508385670,0.01047379
508425419,0.01047379
508464739,0.01289082
508508745,0.6075807
508550660,1.917963
508591085,2.227393
508631573,2.482893
508672049,2.691614
508712712,2.944646
508756036,3.096164
508797496,3.227489
508839148,3.252465
508882879,3.250048
508922960,3.252465
508966624,3.251659
509059749,3.253271
509103434,3.250854
509147610,3.250048
509190675,3.250854
509241382,3.251659
509285656,3.253271
509330031,3.253271
509373948,3.251659
509416823,3.252465
509459608,3.252465
509505971,3.253271
509549397,3.250854
509601966,3.252465
509649631,3.249242
509692218,3.252465
509781813,3.249242
509826606,3.250854
509871885,3.250048
509915665,3.24602
509961253,3.236351
510006899,3.001849
510051019,2.971234
510096202,2.901945
510140288,2.748011
510184547,2.607773
510230943,3.237963
510274299,3.246825
510320514,3.246825
510364335,3.250854
510410670,3.248437
510511366,3.249242
510563789,3.246825
510610385,3.242797
510656458,3.194456
510702719,3.096164
510748121,2.963983
510793229,2.868056
510839080,2.692419
510886284,2.440142
510941546,2.307205
510993456,2.226587
511040898,2.062179
511087251,1.892181
511131953,1.834928
511181310,1.579478
511275448,0.5777707
511321027,0.8566354
511366974,0.574548
511414632,0.4279149
511461506,0.3996658
511510695,1.031518
511558378,0.8969192
511604652,0.8751659
511652111,0.8372992
511699431,0.7566812
511748517,0.9766811
511796174,0.942037
511845281,0.932369
511894653,1.037963
511952388,1.184596
512050940,1.207961
512100817,0.5866331
512151712,1.48602
512200050,1.56981
512248636,1.75436
512298855,1.892181
512348390,1.763223
512404349,1.882513
512456599,1.89057
512506596,1.764028
512555477,1.78417
512602510,1.78981
512654914,1.78981
512704712,1.70602
512751072,1.642321
512848886,1.453793
512899733,1.695546
512949414,0.8880568
513002087,1.376397
513051664,1.459432
513103059,1.780142
513154720,1.885736
513203781,1.776114
513252592,1.766445
513302925,1.801895
513353108,1.820426
513404818,1.793033
513464793,1.748721
513518467,1.780142
513570852,1.813175
513671669,1.721328
513724684,1.598814
513776160,1.734219
513829104,1.736635
513882469,1.781753
513943272,1.82526
513999102,1.793838
514051967,1.801895
514105511,1.808341
514157476,1.806729
514213631,1.729384
514267056,1.685878
514317507,1.736635
514371415,1.709242
514423821,1.553697
514525843,0.7139803
514588587,1.590758
514642598,1.644738
514694232,1.646349
514747024,1.600426
514799856,1.524692
514852499,1.642321
514905541,1.595592
514960247,1.585924
515015118,1.658485
515076722,1.882513
515132850,1.840568
515188029,1.776919
515243014,1.783365
515299241,2.409526
515401780,1.809146
515457338,1.827677
515514157,1.858343
515576487,1.786587
515635386,1.801895
515690843,1.766445
515744071,1.723745
515795811,1.729384
515852350,1.635875
515905774,1.672181
515960356,1.56417
516017052,1.585924
516072164,0.8154956
516127394,1.611705
516184307,1.621373
516287093,1.727773
516342062,1.69474
516400627,1.748721
516455025,1.743081
516511953,1.717299
516569434,1.689101
516624767,1.690712
516682114,1.760806
516746831,1.663319
516803485,1.472323
516839888,1.570616
516876720,1.78417
516915650,1.816397
516951562,1.79545
516988964,1.787393
517078107,1.885736
517122334,1.842179
517162702,1.812369
517199262,1.853458
517235441,1.844596
517270151,1.776114
517309251,1.750332
517347562,1.693129
517384420,1.780142
517424627,1.702797
517463336,1.686683
517500470,1.576255
517540325,1.131421
517577192,1.681044
517614179,1.744692
517697362,1.783365
517734484,1.722939
517773324,1.705214
517810936,1.588341
517847320,1.526304
517886665,1.550474
517932086,1.511801
517971105,1.502939
518009492,1.48602
518051043,1.483603
518087503,1.497299
518128880,1.541611
518169951,1.318389
518217649,1.354644
518260391,1.236965
518351330,1.609288
518390024,1.63507
518426021,1.639904
518467866,1.662513
518507585,1.668153
518544299,1.636681
518583337,1.73019
518621905,1.718105
518660336,1.730996
518701794,1.685072
518740953,1.680238
518781395,1.668958
518820954,1.697157
518860678,1.717299
518901921,1.583507
518988876,1.041186
519028576,1.587535
519069407,1.677015
519117035,1.767251
519157863,1.758389
519201651,1.779336
519244320,1.667347
519285442,1.650428
519328066,1.671376
519372085,1.692323
519421493,1.697157
519467029,1.685072
519509506,1.692323
519550973,1.708437
519590653,1.693934
519682438,1.584312
519725883,0.90981
519767972,1.645544
519810191,1.697963
519854133,1.756777
519894764,1.801089
519939594,1.803506
519981653,1.731801
520025628,1.737441
520068132,1.685072
520110472,1.718105
520154613,1.743081
520196467,1.737441
520240879,1.727773
520285374,1.672987
520385602,1.608482
520430417,1.548057
520474142,1.022605
520519196,1.76
520562705,1.760806
520607741,1.708437
520653320,1.770474
520706001,1.702797
520752630,1.719716
520795134,1.719716
520840683,1.764028
520882760,1.721328
520931061,1.680238
520976780,1.726162
521019386,1.749526
521114682,1.698769
521160209,2.160522
521204022,2.830996
521251495,2.102513
521295082,2.08076
521340666,2.118627
521387175,2.042037
521431901,2.062179
521478503,2.088817
521523657,2.025923
521568728,1.966304
521615694,2.002559
521670377,1.916352
521718278,1.929242
521764624,1.906683
521859446,1.868011
521903734,1.798673
521950804,1.751138
521998932,1.424738
522053505,1.737441
522103086,1.814786
522150862,1.76564
522198298,1.792227
522242361,1.76
522293444,1.612511
522340903,1.672181
522388085,1.557725
522436145,1.574644
522484366,1.452181
522530900,1.336113
522630169,1.465878
522677508,1.486825
522726716,1.371563
522775971,2.542513
522822748,1.382037
522870290,1.548862
522917153,1.687489
522965069,1.693129
523014895,1.741469
523072242,1.693934
523121682,1.815592
523171598,1.779336
523223393,1.778531
523272208,1.703603
523319681,1.758389
523419549,1.845402
523476524,1.728579
523529773,1.634264
523577452,1.132227
523626466,1.640709
523675574,1.783365
523729229,1.727773
523781775,1.767251
523831426,1.642321
523882990,1.62943
523933012,1.59398
523984434,1.579478
524037331,1.535166
524088830,1.568199
524140447,1.609288
524240479,1.650428
524290501,1.556919
524342264,1.882513
524392817,1.530332
524442070,1.678627
524494479,1.689101
524552316,1.679432
524605421,1.598814
524657973,1.544834
524709468,1.467489
524761102,1.448958
524813218,1.376397
524866759,1.383648
524928554,1.367535
524985962,1.619762
525084261,2.478059
525137789,1.563365
525187178,1.697157
525241233,1.778531
525294047,1.773697
525346771,1.774502
525400916,1.793033
525455268,1.798673
525507204,1.829288
525561941,1.894598
525614416,1.857537
525666025,2.072703
525720737,2.385356
525773785,2.207251
525828143,1.66493
525931894,2.253175
525984981,2.304788
526041398,2.323319
526102335,2.237867
526157963,2.179052
526213127,2.131517
526268609,2.094456
526322508,2.162133
526377186,2.160522
526433967,2.007393
526497356,2.073509
526556021,1.4691
526611380,2.033175
526665579,2.011421
526719121,2.030758
526823340,1.940522
526879149,1.93891
526934181,1.883319
526991004,1.897821
527048008,2.15891
527103084,2.331376
527161014,2.385356
527216020,2.250758
527273112,2.870474
527329413,2.28948
527384701,2.212891
527440576,2.270144
527498096,2.25398
527553613,2.127489
527611101,2.092039
527726434,2.070286
527813138,2.050094
527850523,2.016255
527884297,2.062179
527919921,2.005782
527957572,2.224976
528003429,2.162133
528044956,1.779336
528081394,2.225782
528117390,2.400664
528151879,2.215308
528191083,2.174218
528228985,2.142797
528265444,2.154076
528303987,2.083983
528390511,1.921186
528426292,1.910712
528465214,1.877679
528500992,1.768057
528538940,1.710854
528577746,1.609288
528614915,1.428766
528651932,1.418293
528689523,1.050854
528725831,1.050854
528765187,1.745498
528811108,0.4383886
528850372,0.8703319
528889127,0.9654017
528926345,0.9452599
529014164,1.145924
529055041,1.1
529102429,1.133838
529145041,1.087109
529184718,1.141089
529222209,1.145118
529260731,1.206349
529303615,1.269242
529343934,1.340948
529382733,1.424738
529422454,1.309526
529460723,1.304692
529499203,1.750332
529540333,0.9654017
529579477,1.635875
529667407,1.728579
529705750,1.719716
529745292,1.797061
529784658,1.842985
529825416,1.840568
529866703,1.839762
529907549,1.793838
529956073,1.76
529997355,1.801089
530037952,1.818814
530077129,1.769668
530118443,1.838151
530161242,1.726967
530212191,1.768057
530258985,2.605356
530349367,1.755972
530390421,1.72455
530429952,1.757583
530474195,1.76
530517191,1.779336
530556927,1.709242
530598348,1.722939
530639970,1.677015
530682037,1.685072
530728218,1.655262
530770051,1.666541
530813738,1.671376
530857781,1.726162
530898918,1.665736
530941113,1.703603
531033205,1.329668
531076071,1.798673
531120387,1.773697
531169073,1.805923
531213099,1.784976
531256730,1.769668
531299721,1.750332
531344399,1.793033
531390521,1.708437
531443976,1.774502
531491767,1.716493
531536341,1.73583
531579786,1.786587
531621724,1.696352
531668312,1.75436
531762345,1.818009
531806188,1.81398
531851001,1.81962
531895822,1.826066
531939026,1.876068
531986292,1.842179
532030356,1.802701
532076422,1.801089
532122774,1.830899
532167255,1.767251
532211753,1.728579
532258347,1.785782
532303135,1.785782
532349709,1.71891
532404675,1.818814
532496924,1.807535
532543712,1.801895
532587061,1.771279
532632185,1.780142
532679967,1.822843
532735086,1.726162
532786900,1.785782
532834266,1.737441
532881238,1.73583
532925885,1.693129
532974300,1.577867
533022128,1.683461
533067061,1.672987
533115327,1.464266
533162026,1.43924
533256689,1.479574
533306306,1.581895
533353236,1.548862
533400256,1.516635
533447336,1.438434
533494688,1.361089
533540748,1.416681
533588345,1.297441
533637483,1.155592
533686858,1.119336
533742688,1.177345
533791823,1.181373
533838633,1.112085
533886494,1.218434
533936091,0.8260197
534034710,1.519052
534091310,1.65929
534144244,1.70038
534194040,1.717299
534244426,1.830094
534291245,1.832511
534344286,1.92602
534394666,1.880902
534443767,1.980806
534494448,1.916352
534545543,1.970332
534594637,1.873651
534646564,1.272465
534695588,2.022701
534746546,2.030758
534845746,2.106541
534896978,1.978389
534948244,1.942939
534998358,1.964692
535047340,1.981611
535099103,1.938105
535155934,1.856732
535206504,1.947773
535258559,1.847819
535307047,1.927631
535358158,2.635972
535411426,1.838151
535471174,1.871234
535527955,1.851847
535580528,1.786587
535683120,1.628624
535734560,1.435212
535789559,1.281327
535841604,1.15398
535892396,1.066967
535944197,1.041186
535996948,0.7582925
536050721,0.6906157
536104555,0.6083863
536156373,0.6777248
536209339,0.8550241
536261523,1.012131
536313894,1.132227
536366227,1.300664
536420656,1.336113
536524484,1.558531
536580548,1.677821
536641113,1.810758
536695409,1.715688
536749177,1.79545
536799754,1.434406
536854317,1.930854
536910303,1.968721
536971668,2.033175
537029265,2.148437
537084267,2.153271
537137953,2.073509
537189849,2.073509
537247063,2.148437
537302611,2.160522
537404507,2.198389
537460329,2.145214
537516403,2.385356
537570773,2.038009
537627831,2.162133
537681868,2.104125
537736216,2.032369
537790793,2.04526
537845637,2.062179
537901963,1.97436
537956298,1.863983
538012815,1.81398
538069773,1.764834
538134751,1.572227
538191145,1.378009
538300289,0.9936003
538355891,0.9154497
538412070,0.9001419
538467931,0.9927947
538532799,1.041991
538595457,1.160426
538652177,1.274882
538737693,1.484408
538776173,1.588341
538813403,1.72455
538849185,1.809952
538888443,2.046871
538926156,2.004976
538962234,1.617345
539001034,2.263649
539084621,2.28948
539119645,2.270144
539155742,2.256397
539192022,2.353935
539229810,2.396635
539268375,2.504646
539306651,2.586825
539346773,2.594076
539392545,2.434502
539430869,2.437725
539470373,2.435308
539506576,2.453033
539545301,2.517537
539583852,2.383744
539629303,2.326541
539722882,2.473175
539761678,2.284646
539797408,2.074314
539839667,2.075926
539877349,2.01545
539915691,1.930048
539953554,1.851847
539993638,1.764028
540031839,1.695546
540073139,1.490854
540111199,0.7961593
540149693,0.2490044
540188132,0.0136965
540225858,0.0136965
540263333,0.0136965
540349186,0.009668117
540388900,1.487631
540429790,0.01450217
540476950,0.551989
540517503,0.7381506
540558722,0.8558297
540598223,1.022605
540638533,1.141089
540678333,1.236159
540728125,1.376397
540773493,1.562559
540813580,1.620568
540851629,1.718105
540896322,1.737441
540936045,1.805118
541025539,2.002559
541066455,2.004976
541109150,1.660902
541150230,2.125878
541193997,2.316068
541234933,2.419194
541275708,2.442559
541316961,2.507869
541357183,2.463506
541399170,2.44981
541441439,2.527205
541484568,2.561849
541526832,2.55621
541578586,2.44417
541621746,2.480476
541714827,2.356352
541755065,2.282229
541798737,2.240284
541843801,1.750332
541895200,2.245924
541941941,2.33057
541985751,2.33057
542027378,2.33057
542074768,2.244312
542117050,2.201611
542157297,2.141186
542200745,2.149242
542243159,2.154882
542286381,2.158105
542332463,2.006587
542425084,1.990474
542470060,1.801089
542515425,1.689906
542557996,1.933271
542601506,0.9251179
542644480,1.220851
542689697,1.147535
542735238,1.04602
542788205,1.090332
542832588,1.011325
542878578,0.8195239
542923136,0.7953537
542969155,0.8550241
543015635,0.8671092
543070408,0.9960175
543168491,1.138672
543214228,1.359478
543259190,1.276493
543307430,1.384454
543351272,0.8485786
543396648,1.601231
543441707,1.727773
543487126,1.78417
543532405,1.822843
543578749,1.815592
543623621,1.847819
543669542,1.750332
543715567,1.698769
543761842,1.796255
543809551,1.777725
543906584,1.788199
543954542,1.760806
544001819,1.761611
544056538,1.698769
544104454,1.182985
544152063,1.816397
544197037,1.797061
544244009,1.841373
544292424,1.711659
544348940,1.772085
544399778,1.644738
544448381,1.612511
544494163,1.50455
544547292,1.490854
544596400,1.454598
544690049,1.566587
544737645,1.493271
544787452,1.429572
544834382,2.006587
544885112,1.502133
544931967,1.610899
544979290,1.728579
545029520,1.804312
545078025,1.734219
545128168,1.84379
545176946,1.783365
545227190,1.81398
545276046,1.781753
545332853,1.768057
545384761,1.827677
545485131,1.784976
545534359,1.715688
545585221,1.669764
545637145,1.764028
545695971,1.786587
545751413,1.844596
545801235,1.94455
545849309,1.859954
545903579,1.903461
545953260,1.771279
546003483,1.892181
546053764,1.801895
546105763,1.850236
546156159,1.892987
546209379,1.93891
546305480,1.766445
546356368,1.356255
546406770,1.823648
546457937,1.764834
546510656,1.779336
546563854,1.813175
546615907,1.675404
546669045,1.466683
546728693,1.392511
546781688,1.367535
546836728,1.329668
546885721,1.393317
546939247,1.460238
546993772,1.432795
547053899,1.483603
547160119,1.801895
547213703,1.793033
547266335,1.883319
547323331,1.934882
547377556,1.805118
547430364,1.807535
547483083,1.81962
547537818,1.796255
547590691,1.771279
547646451,1.81398
547699275,1.844596
547752343,1.757583
547804485,2.199194
547856680,1.508579
547908930,1.744692
548011263,1.638292
548065531,1.579478
548119385,1.424738
548181134,1.160426
548236203,1.036352
548291878,0.937203
548346036,0.9541222
548401887,1.225685
548458973,1.108862
548522500,2.320902
548582659,1.389288
548638124,1.675404
548690015,1.689101
548746988,1.78417
548802565,1.838956
548905468,1.958247
548960662,2.006587
549017679,2.007393
549074718,1.95019
549132894,1.959858
549187960,1.995308
549244949,2.755262
549300450,2.008199
549355997,1.970332
549411296,1.925214
549468039,1.906683
549523653,1.941328
549619591,1.883319
549656461,1.800284
549693762,1.793838
549775546,1.780142
549812789,1.741469
549851309,1.697963
549896500,1.681044
549938053,1.569004
549975423,1.04038
550008785,1.381231
550047118,1.584312
550084881,1.540806
550121414,1.641515
550159917,1.570616
550197551,1.585924
550234403,1.531943
550273297,1.466683
550309903,1.472323
550397396,1.453793
550436389,1.430378
550472530,1.399762
550511340,1.404596
550549538,1.548862
550587173,1.556113
550631195,1.602843
550670111,2.102513
550710868,1.222463
550748922,1.733413
550788483,1.743886
550827834,1.808341
550875097,1.812369
550917810,1.85507
550957323,1.785782
551042636,1.787393
551085346,1.796255
551123540,1.798673
551160500,1.779336
551199153,1.78417
551239789,1.790616
551278635,1.851847
551320672,1.780948
551359542,1.78417
551400503,2.543319
551439808,1.350616
551478957,1.822037
551518957,1.820426
551558707,1.776919
551599828,1.834122
551699144,1.822037
551740243,1.774502
551782331,1.781753
551820486,1.768862
551861953,1.758389
551903382,1.677015
551952987,1.719716
551999456,1.760806
552039806,1.669764
552079096,1.656873
552124343,1.677821
552167045,1.07019
552208229,1.743886
552249624,1.686683
552292697,1.764028
552381890,1.779336
552426053,1.69474
552466268,1.67057
552509545,1.665736
552551379,1.616539
552591550,1.608482
552634967,1.726162
552678973,1.677015
552721108,1.78981
552772484,1.826871
552816145,1.810758
552860209,1.813175
552902682,1.595592
552945123,1.851847
552990425,1.782559
553091245,1.806729
553140907,1.847819
553184936,1.744692
553227278,1.761611
553272435,1.740664
553315688,1.776919
553358053,1.721328
553401649,1.711659
553446912,1.710854
553490668,1.635875
553537094,1.729384
553580546,1.642321
553625877,1.511801
553671512,1.1
553715142,1.67621
553808349,1.726967
553853247,1.738247
553899143,1.797061
553948885,1.735024
553994718,1.761611
554043753,1.734219
554088575,1.663319
554133213,1.691517
554180724,1.651234
554233901,1.604454
554282257,1.76
554329938,1.683461
554375219,1.568199
554424877,1.079858
554468862,1.660902
554562494,1.726162
554610221,1.697963
554658260,1.715688
554704415,1.614928
554753483,1.660096
554799485,1.756777
554847358,1.764834
554894550,1.807535
554940922,1.852653
554988132,1.816397
555036489,1.911517
555083201,1.838956
555137963,1.942939
555186719,1.446541
555235531,1.778531
555328673,1.81962
555377324,1.842179
555425940,1.70602
555482641,1.688295
555534435,1.693129
555582482,1.667347
555630077,1.580284
555680679,1.63507
555730101,1.595592
555777966,1.712465
555827713,1.561753
555875682,1.53436
555923662,1.091943
555974753,1.680238
556023031,1.672181
556121910,1.769668
556172361,1.685878
556221032,1.723745
556269494,1.651234
556320211,1.695546
556369203,1.644738
556426587,1.621373
556476946,1.692323
556529347,1.606065
556575806,1.535972
556626760,2.2
556677515,1.324834
556737170,1.663319
556790278,1.628624
556841387,1.713271
556936407,1.652845
556989651,1.585924
557038682,1.677015
557088780,1.631041
557138068,1.650428
557187582,1.598814
557239654,1.701991
557292013,1.496493
557341356,1.54564
557393431,1.058105
557444683,1.614928
557495830,1.710048
557548552,1.723745
557600126,1.820426
557651651,1.673793
557765112,1.738247
557818129,1.770474
557873166,1.651234
557924923,1.697157
557977438,1.740664
558029826,1.73583
558092740,1.696352
558149299,2.362797
558201971,1.688295
558251752,1.729384
558308980,1.742275
558362277,1.768057
558412282,1.697963
558466941,1.713271
558518961,1.692323
558620556,1.689906
558676285,1.713271
558729060,1.614928
558783732,1.614928
558837718,1.523886
558890973,1.40943
558945802,1.00488
558998546,1.578672
559053801,1.616539
559116799,1.712465
559172014,1.699574
559226651,1.680238
559279880,1.739858
559335482,1.646349
559392413,1.59398
559507377,1.652845
559566045,1.760806
559621576,1.763223
559674315,1.721328
559734338,1.097583
559789135,1.751138
559843976,1.798673
559898976,1.86076
559956013,1.81962
560011173,1.745498
560069309,1.768862
560124210,1.813175
560181129,1.774502
560237385,1.768057
560292824,1.723745
560395045,1.632653
560450683,1.664124
560508247,1.22488
560571962,1.743886
560661956,1.774502
560697630,1.746303
560734780,1.730996
560773389,1.664124
560820817,1.703603
560861094,1.685072
560898299,1.730996
560934324,1.631041
560973278,1.643932
561011044,1.607677
561047368,1.62943
561135955,1.774502
561173305,1.710048
561209031,1.653651
561247808,1.654456
561284328,2.374076
561322056,1.216823
561360552,1.703603
561397567,1.712465
561436098,1.721328
561473496,1.690712
561510586,1.70038
561557506,1.717299
561596549,1.651234
561634086,1.65929
561672159,1.727773
561761238,1.680238
561810080,1.571421
561853590,1.62379
561892127,1.641515
561928421,1.650428
561970116,1.583507
562008921,1.547251
562045635,1.799478
562085829,1.079052
562125343,1.627819
562165785,1.722133
562206238,1.710854
562243725,1.730996
562284246,1.67057
562323305,1.697157
562412000,1.54564
562451924,1.608482
562491260,1.647155
562530780,1.602843
562576615,1.600426
562618009,1.608482
562657436,1.751138
562697849,1.722939
562740771,1.70038
562790742,1.761611
562834891,1.311138
562876146,1.684266
562913438,1.748721
562957654,1.793838
562998966,1.841373
563085869,1.762417
563128466,1.772891
563171327,1.834122
563212510,1.881707
563256395,1.95019
563297428,1.984834
563338548,2.043648
563380774,2.166967
563421095,2.032369
563464094,1.91474
563505769,2.008199
563549167,1.924408
563598017,2.075926
563641845,2.021895
563683935,1.99853
563777795,1.887347
563822802,1.86076
563876175,1.805923
563925331,1.647961
563968214,1.75436
564008971,1.710854
564055852,1.73019
564098279,1.695546
564141227,1.539194
564185781,1.305498
564230874,0.9178667
564274121,1.348199
564320335,1.51019
564365098,1.435212
564410175,1.375592
564502224,1.259574
564545447,1.203127
564590624,1.170094
564634310,1.18379
564681432,1.257963
564730894,1.178151
564776585,1.340948
564820717,1.310332
564865649,1.373175
564912887,2.495784
564968417,1.481186
565017100,1.651234
565063028,1.653651
565105884,1.693934
565153667,1.736635
565248758,1.639098
565290980,1.67057
565335187,1.662513
565381039,1.744692
565426293,1.650428
565474295,1.580284
565518257,1.663319
565565830,1.483603
565611717,1.363507
565657766,0.8493843
565705345,1.466683
565751665,1.523081
565798659,1.665736
565855528,1.743081
565905118,1.622179
565999452,1.680238
566048071,1.616539
566095972,1.673793
566153740,1.713271
566203434,1.709242
566250961,1.712465
566296312,1.686683
566345734,1.593175
566393576,1.048437
566441042,1.809146
566490443,1.656873
566537805,1.750332
566584539,1.734219
566635108,1.658485
566682485,1.710854
566785024,1.711659
566834495,1.687489
566882372,1.657679
566931949,1.633458
566979405,1.615734
567029626,1.395734
567086649,1.438434
567139912,1.009714
567188589,1.393317
567238039,1.587535
567288801,1.633458
567346775,1.690712
567400044,1.748721
567450392,1.674598
567496700,1.73583
567597983,1.834928
567648477,1.718105
567698106,1.768862
567749654,1.697963
567801334,1.687489
567851179,1.641515
567903874,1.033934
567955269,1.680238
568006802,1.721328
568056021,1.761611
568106191,1.772891
568156748,1.801089
568206251,1.779336
568258247,1.717299
568318581,1.747109
568420302,1.708437
568469601,1.641515
568522387,1.771279
568575617,1.631847
568636208,1.486825
568692173,1.108057
568744703,1.631041
568796476,1.680238
568853713,1.621373
568907001,1.582701
568958871,1.617345
569014167,1.56417
569068050,1.526304
569120064,1.59398
569176594,1.56981
569276758,1.712465
569327982,1.552085
569382265,1.802701
569434872,1.178956
569488894,1.669764
569541779,1.78981
569596487,1.790616
569657258,1.751943
569713531,1.615734
569766670,1.709242
569821470,1.768862
569875718,1.768057
569939113,1.832511
569998449,1.777725
570053513,1.733413
570158553,1.202321
570217870,1.818009
570273366,1.779336
570327511,1.799478
570383314,1.848624
570439500,1.779336
570492741,1.721328
570549868,1.71891
570603806,1.745498
570659025,1.709242
570715255,1.679432
570769822,1.668153
570826119,1.658485
570882940,2.519954
570939569,1.618956
571051747,1.627013
571109951,1.583507
571165153,1.544834
571221192,1.461849
571278515,1.452987
571343273,1.315166
571404441,1.335308
571460409,1.389288
571514266,1.539194
571572151,1.287773
571659925,0.9492882
571696361,1.394122
571732817,1.609288
571768641,1.672987
571806261,1.704408
571892722,1.722133
571930264,1.729384
571966950,1.75436
572001989,1.838956
572039565,1.760806
572076033,1.737441
572113848,1.711659
572158147,1.771279
572197970,1.739858
572234834,1.744692
572271367,1.779336
572311111,1.652039
572358032,1.699574
572400751,1.82526
572439074,1.708437
572522285,1.857537
572562382,1.844596
572598817,1.829288
572638703,1.829288
572676982,1.70602
572713723,1.607677
572753217,1.400568
572790035,1.23052
572828657,1.152369
572868463,1.02905
572906468,1.1
572945888,0.9500938
572984213,1.035546
573023349,1.090332
573071540,0.967013
573165238,0.8203296
573203904,1.240238
573244032,1.45621
573285555,1.619762
573334320,1.65929
573378900,1.721328
573419051,1.711659
573456587,1.717299
573498707,1.785782
573538229,1.771279
573580920,1.800284
573622279,1.847819
573661874,1.853458
573704399,1.853458
573745409,1.851041
573834531,1.767251
573875958,1.67621
573915717,1.486825
573957239,1.842985
573999743,1.876873
574041487,1.943745
574090757,1.854264
574134898,1.853458
574175832,1.845402
574217590,1.826066
574260590,1.883319
574311775,1.834122
574357231,1.859149
574401506,1.880902
574441068,1.834122
574536892,1.78981
574578550,1.747109
574623417,1.780142
574667266,2.072703
574709233,1.19507
574754299,1.712465
574795898,1.625402
574839771,1.712465
574881929,1.719716
574924242,1.747915
