708490660,1.93166
708494825,1.930854
708499211,1.930048
708503602,1.921186
708508088,1.908295
708512661,1.935688
708517297,1.953413
708568230,1.683461
708572989,1.689101
708577779,1.677821
708582648,1.640709
708587529,1.638292
708592509,1.642321
708597679,1.639904
708602941,1.618956
708608270,1.608482
708613708,1.608482
708661749,1.602037
708667196,1.643932
708672729,1.666541
708678336,1.631041
708683948,1.622985
708689685,1.640709
708695472,1.666541
708744312,1.642321
708750235,1.612511
708756428,1.585924
708762510,1.570616
708816304,1.613317
708854982,1.632653
708892213,1.637487
708932697,1.683461
708974694,1.841373
709054707,1.550474
709097596,2.681946
709136772,1.586729
709176379,1.706825
709218763,1.755972
709256000,1.871234
709297954,1.874456
709337027,1.711659
709379538,1.560142
709419404,1.561753
709461511,1.579478
709504696,1.556919
709542966,1.569004
709582070,1.523886
709626053,1.544834
709671267,1.586729
709764123,1.771279
709807306,1.498911
709848346,1.476351
709888494,2.062179
709934186,1.588341
709977670,1.654456
710022170,1.750332
710065778,1.794644
710105715,1.78981
710147544,1.602037
710192015,1.561753
710234596,1.595592
710275646,1.628624
710318483,1.609288
710362149,1.59962
710404418,1.589146
710484999,1.611705
710524900,1.792227
710569677,1.618151
710611964,1.579478
710657178,2.702893
710702413,1.41507
710746196,1.67621
710790736,1.895404
710833182,1.820426
710875364,1.811563
710917443,1.674598
710967621,1.51583
711009061,1.574644
711056247,1.565782
711104073,1.535166
711148946,1.533555
711237560,1.585924
711282283,1.565782
711322829,1.764834
711370200,1.481186
711421475,1.857537
711467079,1.166871
711514040,1.610899
711561796,1.693934
711605364,1.818814
711649114,1.857537
711693882,1.70038
711739889,1.618151
711787539,1.625402
711834028,1.696352
711880899,1.660096
711932153,1.656873
712021771,1.669764
712066489,1.91474
712113646,1.577867
712159412,1.531943
712210595,0.8389105
712259737,1.685878
712305427,1.769668
712352690,1.859149
712404455,1.859954
712455554,1.622179
712503374,1.564976
712549803,1.583507
712595775,1.60526
712645764,1.558531
712692674,1.588341
712743344,1.552085
712835674,1.770474
712883230,1.520664
712928738,1.326445
712975642,1.079858
713024828,1.552085
713073114,1.662513
713118801,1.763223
713166312,1.774502
713214942,1.65929
713260893,1.550474
713308763,1.596397
713357396,1.614122
713404364,1.592369
713452507,1.589952
713502128,1.60526
713550938,1.593175
713645046,1.559336
713694629,1.533555
713746177,1.932465
713794091,1.616539
713843470,1.708437
713892609,1.807535
713942116,1.796255
713993411,1.660902
714040649,1.592369
714092077,1.608482
714143812,1.57545
714196691,1.577867
714250709,1.544834
714301050,1.573838
714357202,1.729384
714406250,1.518247
714501394,1.610094
714552548,1.645544
714603056,1.739052
714653844,1.832511
714703783,1.824454
714755738,1.701991
714805833,1.646349
714857762,1.682655
714906592,1.655262
714958034,1.639098
715008151,1.627819
715061664,1.672987
715111413,1.817203
715163436,1.582701
715215829,3.171897
715268242,1.639098
715366750,1.796255
715418756,1.838151
715468332,1.763223
715519996,1.631847
715574117,1.657679
715627303,1.639904
715687465,1.618151
715738886,1.624596
715794645,1.78417
715845436,1.602843
715894757,1.538389
715947624,2.631138
716002397,1.654456
716057022,1.738247
716111050,1.782559
716162568,1.789004
716261996,1.612511
716313677,1.614122
716369943,1.59962
716423968,1.585924
716479815,1.581089
716530895,1.685072
716587605,1.506967
716639684,1.722939
716692437,1.332891
716744266,1.640709
716796045,1.729384
716854151,1.753555
716907997,1.666541
716964251,1.554502
717019412,1.589952
717074056,1.566587
717173064,1.560948
717226364,1.633458
717280071,1.559336
717334990,1.509384
717391864,1.228908
717443828,1.612511
717499712,1.722939
717551624,1.811563
717607694,1.727773
717659896,1.56981
717714464,1.568199
717770853,1.595592
717828020,1.566587
717888873,1.53436
717949852,1.72455
718003310,1.589146
718102040,3.013935
718158823,1.642321
718216310,1.751138
718277479,1.817203
718332937,1.777725
718390851,1.613317
718446773,1.838956
718502373,1.95583
718594930,1.916352
718635865,2.073509
718680935,2.42
718724674,2.10493
718765243,2.04526
718801991,3.181566
718850373,2.175024
718888245,2.123461
718966754,1.835733
719005332,1.551279
719043910,1.52872
719081039,1.344976
719121881,1.2491
719158030,1.255546
719195442,1.286162
719237465,1.28455
719273056,1.236965
719312319,1.222463
719351348,1.324028
719390891,1.18379
719430146,1.1709
719468725,2.841469
719509038,0.9452599
719543438,1.428766
719627227,1.525498
719665751,1.447347
719706966,1.317583
719752825,0.5850217
719793819,0.5100938
719833381,0.5318471
719871480,1.211989
719917687,1.683461
719958246,1.76
719997674,1.988057
720038677,2.14038
720077405,1.847013
720116702,1.864788
720161010,2.71659
720200130,2.016255
720240425,2.088817
720323204,2.12185
720364690,2.031563
720405606,1.923603
720444116,1.822037
720481022,1.766445
720523641,1.769668
720566123,1.751138
720608780,1.697963
720654213,1.677821
720696425,1.908295
720739492,1.592369
720779322,1.601231
720817497,3.18076
720858011,1.552085
720905946,1.709242
720947093,1.763223
721037526,1.691517
721082371,1.618151
721125455,1.561753
721167118,1.619762
721208558,1.589952
721248944,1.591563
721295326,1.510996
721343707,1.549668
721388426,1.716493
721433757,1.476351
721477297,1.498105
721517925,1.018576
721562316,1.548057
721604505,1.622985
721647005,1.689101
721691643,1.689101
721779406,1.577867
721824051,1.577867
721873022,1.584312
721918153,1.576255
721961001,1.590758
722004546,1.60526
722049764,1.597203
722097703,1.793838
722143502,1.548862
722186976,1.692323
722231155,0.8832227
722281017,1.677015
722331406,1.781753
722378932,1.8664
722425120,1.863983
722468713,1.716493
722558754,1.656873
722604976,1.65929
722650829,1.592369
722695615,1.583507
722741575,1.555308
722786457,1.573838
722829144,1.773697
722875651,1.535166
722920193,1.505356
722964776,3.174314
723012393,1.506967
723057384,1.639904
723100732,1.704408
723147119,1.774502
723192462,1.764834
723237216,1.641515
723325254,1.632653
723373328,1.602037
723419902,1.586729
723467724,1.593175
723514909,1.573033
723563258,1.584312
723609384,1.815592
723656867,1.523886
723704254,1.533555
723753410,1.029856
723802565,1.59962
723848006,1.683461
723899896,1.742275
723949466,1.730996
724001458,1.590758
724053658,1.573838
724145526,1.584312
724197608,1.552085
724245071,1.573838
724296767,1.554502
724345893,1.723745
724396226,1.498911
724443688,1.518247
724491545,2.394218
724539862,1.588341
724589623,1.678627
724639148,1.76564
724685947,1.796255
724735503,1.718105
724783454,1.619762
724833388,1.641515
724882782,1.658485
724976876,1.590758
725024880,1.614928
725074792,1.785782
725127722,1.549668
725178673,1.535972
725227611,2.054928
725279560,1.66493
725330306,1.730996
725380046,1.835733
725437113,1.841373
725486782,1.683461
725541389,1.643932
725592326,1.685072
725639362,1.641515
725689939,1.628624
725741610,1.635875
725840497,1.893793
725890892,1.589952
725939200,1.611705
725992657,1.317583
726041911,1.723745
726094625,1.79545
726146265,1.872845
726198232,1.847013
726246884,1.635875
726302415,1.607677
726351957,1.633458
726404596,1.59398
726454548,1.574644
726504538,1.574644
726560789,1.763223
726612894,1.494076
726711275,1.369952
726765939,1.585924
726817399,1.689101
726872100,1.729384
726923515,1.741469
726976084,1.573838
727030133,1.563365
727084189,1.569004
727134408,1.557725
727188704,1.53436
727241281,1.539194
727295995,1.63507
727346228,1.457821
727403169,1.424738
727456624,1.113696
727512781,1.610094
727616443,1.764834
727673088,1.708437
727727297,1.586729
727778869,1.621373
727834757,1.639904
727890315,1.598814
727948459,1.603648
728002106,1.632653
728057393,1.583507
728109950,1.59962
728162071,2.428862
728219459,1.633458
728278898,1.766445
728342733,1.90185
728405296,1.73019
728465609,1.624596
728575134,1.618956
728632929,1.654456
728688453,1.646349
728746810,1.809146
728805633,1.56981
728862452,1.959858
728922101,1.613317
728978010,1.692323
729033059,1.750332
729094858,1.809146
729148619,1.640709
729208655,1.67621
729266155,1.643127
729324319,1.614928
729380813,1.604454
729439160,1.602037
729542905,1.543223
729627529,0.8816113
729664908,1.625402
729706451,1.72455
729748897,1.777725
729787905,1.838956
729823430,1.756777
729860536,1.650428
729905301,1.531138
729943819,1.549668
729981620,1.583507
730021475,1.560948
730057934,1.515024
730092756,1.492465
730133635,1.519858
730169406,1.518247
730251795,1.421515
730288665,1.476351
730326902,3.163841
730364715,1.205544
730401210,1.554502
730435850,1.654456
730476454,1.59962
730516626,1.696352
730555775,1.739858
730595626,1.59398
730635764,1.502939
730674373,1.564976
730712526,1.719716
730750501,1.490048
730786418,1.52872
730829972,1.547251
730915050,1.749526
730956954,1.386871
731001366,1.392511
731042187,1.370758
731082108,1.484408
731120656,1.657679
731157580,1.775308
731201465,1.768862
731247225,1.830899
731290145,1.701991
731331766,1.618151
731375480,1.615734
731414452,1.673793
731455621,1.661707
731496008,1.625402
731537773,1.653651
731623585,1.847819
731665813,1.594786
731709013,1.523081
731754115,1.013742
731795841,1.67057
731836074,1.697157
731877033,1.792227
731917238,1.837345
731963307,1.787393
732008413,1.63507
732050210,1.580284
732093601,1.654456
732140321,1.617345
732189434,1.606065
732233646,1.585924
732276088,1.616539
732361341,1.523081
732402966,1.538389
732445895,3.142893
732489929,1.590758
732532662,1.696352
732578245,1.773697
732621146,1.808341
732663698,1.791421
732707864,1.660096
732751211,1.595592
732794011,1.637487
732839696,1.625402
732882293,1.588341
732923830,1.584312
732966184,1.587535
733009592,1.723745
733096328,1.522275
733140491,1.898627
733185463,1.174122
733230070,1.633458
733275923,1.705214
733322395,1.768862
733366835,1.792227
733410484,1.683461
733457108,1.581895
733503335,1.577061
733551375,1.622985
733597874,1.592369
733638880,1.577867
733688215,1.550474
733734376,1.593175
733784931,1.84379
733876913,1.457821
733923874,0.8187182
733973866,1.647155
734016948,1.713271
734065045,1.789004
734110124,1.854264
734157867,1.699574
734204526,1.588341
734249750,1.618151
734296944,1.614928
734344138,1.56417
734389784,1.581089
734434056,1.56981
734481582,1.562559
734527908,1.739858
734575821,1.531943
734665821,3.167063
734714460,1.598814
734761795,1.664124
734809519,1.751943
734857628,1.802701
734905702,1.711659
734950664,1.606065
734999848,1.597203
735048011,1.614928
735095661,1.606871
735149868,1.602843
735198373,1.612511
735248498,1.614122
735295725,1.782559
735341568,1.585924
735389536,1.587535
735486419,1.635875
735536705,1.729384
735586532,1.818814
735634242,1.852653
735684273,1.721328
735731422,1.597203
735781682,1.631847
735829498,1.625402
735880923,1.587535
735927735,1.574644
735980141,1.561753
736027684,1.564976
736077721,1.809952
736131888,1.52872
736179398,1.672987
736231916,1.361895
736323752,1.721328
736375455,1.832511
736427475,1.776919
736477901,1.606065
736527536,1.581895
736576668,1.618956
736625977,1.588341
736677444,1.583507
736729255,1.570616
736778672,1.602037
736829296,1.734219
736879427,1.527915
736930101,1.427155
736979788,0.8977249
737033045,1.618956
737083815,1.717299
737182291,1.779336
737238533,1.57545
737294056,1.600426
737346252,1.597203
737396739,1.582701
737451902,1.577867
737505461,1.569004
737561358,1.620568
737612887,1.626207
737668240,1.525498
737720299,2.461895
737771042,1.604454
737826276,1.715688
737883728,1.802701
737944107,1.801089
738003354,1.621373
738099008,1.664124
738163154,1.621373
738216702,1.628624
738269405,1.607677
738323445,1.81398
738378806,1.549668
738432066,1.452987
738489932,1.176539
738542760,1.663319
738597056,1.769668
738654342,1.822037
738706327,1.728579
738764278,1.57545
738819704,1.597203
738875810,1.592369
738932796,1.583507
739034686,1.583507
739090489,1.793838
739144127,1.526304
739201380,2.132323
739259925,1.59962
739320045,1.756777
739377477,1.806729
739433207,1.814786
739488677,1.606871
739551140,1.59962
739606543,1.592369
739664161,1.56417
739722541,1.571421
739777706,1.585924
739832012,1.839762
739892846,1.553697
739991984,1.577061
740049698,1.706825
740106086,1.798673
740163664,1.781753
740220854,1.628624
740276649,1.627819
740330667,1.624596
740389374,1.598814
740446628,1.590758
740540813,1.75436
740578908,1.639904
740617819,1.600426
740652706,1.731801
740688387,1.542417
740723041,1.667347
740764427,1.749526
740848268,1.913129
740891060,1.889764
740934639,1.777725
740974525,1.704408
741012087,1.709242
741050064,1.732607
741086709,1.641515
741126208,1.642321
741170901,1.651234
741209962,1.619762
741251395,1.776919
741291483,1.571421
741328345,1.561753
741368112,2.366825
741404633,0.9380087
741442708,1.624596
741527245,1.801895
741565746,1.848624
741606625,1.805118
741650706,1.651234
741691193,1.593175
741730303,1.600426
741769431,1.589146
741809516,1.570616
741855387,1.564976
741897999,1.573838
741937113,1.603648
741977897,1.786587
742024388,1.509384
742068990,1.432795
742111736,2.475642
742153053,1.564976
742237732,1.729384
742278526,1.780142
742320066,1.764834
742361837,1.645544
742401940,1.557725
742443608,1.577867
742482227,1.590758
742522342,1.577061
742562375,1.564976
742602303,1.569004
742642600,1.554502
742685704,1.717299
742726455,1.564976
742765347,1.513413
742806755,1.780142
742849022,0.9702357
742931246,1.67057
742973609,1.775308
743016167,1.776114
743059905,1.779336
743102329,1.611705
743145164,1.588341
743188895,1.631847
743230309,1.606871
743273140,1.603648
743317127,1.587535
743361736,1.572227
743406056,1.72455
743446786,1.602843
743491671,1.526304
743535940,3.130002
743580724,1.38526
743670387,1.713271
743715215,1.782559
743763785,1.781753
743806449,1.657679
743852144,1.59398
743896805,1.640709
743940561,1.639904
743985033,1.652845
744027989,1.595592
744071641,1.619762
744116679,1.690712
744160533,1.76
744202518,1.554502
744248986,1.78417
744292428,1.076635
744337906,1.682655
744425061,1.822037
744470397,1.813175
744515346,1.762417
744560246,1.627819
744607154,1.622179
744653906,1.626207
744696284,1.621373
744744524,1.606871
744791866,1.59962
744837993,1.638292
744888347,1.719716
744934084,1.54564
744981885,2.589242
745028211,1.466683
745072349,1.643932
745118215,1.762417
745212430,1.806729
745261420,1.647155
745309877,1.583507
745353527,1.604454
745401861,1.602037
745447033,1.579478
745495423,1.585118
745541240,1.577867
745590537,1.749526
745636847,1.499716
745688208,1.436017
745735310,0.8896681
745781757,1.62379
745826945,1.741469
745872178,1.820426
745923662,1.839762
746016688,1.619762
746066439,1.683461
746115059,1.652039
746161090,1.637487
746211106,1.614122
746258724,1.639098
746307369,1.768862
746357174,1.630236
746407450,1.570616
746453763,3.171897
746501700,1.642321
746546831,1.685072
746597719,1.802701
746643145,1.822843
746695314,1.727773
746743762,1.622179
746840389,1.625402
746894538,1.59398
746947771,1.595592
746997491,1.706825
747044566,1.624596
747093262,1.506162
747145744,3.162229
747200270,1.587535
747249071,1.671376
747300930,1.789004
747350500,1.78417
747399452,1.673793
747451048,1.56981
747506917,1.614928
747566315,1.587535
747624264,1.558531
747718689,1.689101
747782587,1.517441
747834590,1.780142
747885655,1.388482
747937886,1.652845
747990776,1.747109
748041483,1.799478
748096202,1.717299
748148960,1.548057
748200307,1.588341
748254859,1.551279
748305800,1.548862
748360549,1.53436
748413792,1.570616
748467295,1.655262
748519337,1.498911
748618797,1.548057
748674514,1.645544
748724387,1.755972
748779347,1.818814
748837234,1.635875
748897106,1.589952
748951536,1.631041
749003905,1.633458
749054763,1.59962
749115387,1.624596
749171579,1.867205
749225845,1.606871
749279898,2.162939
749333640,1.608482
749385787,1.755166
749442221,1.92602
749538295,1.845402
749593791,1.655262
749649542,1.723745
749704966,1.672987
749759037,1.621373
749810779,1.601231
749862962,1.614928
749920087,1.693129
749975441,1.494076
750033761,2.200806
750088654,1.57545
750146105,1.673793
750200287,1.733413
750253578,1.714882
750306310,1.543223
750366093,1.571421
750469651,1.552085
750529763,1.556919
750590558,1.710854
750647470,1.512607
750703841,1.50455
750760205,1.236965
750813619,1.682655
750872840,1.806729
750935919,1.826871
750993283,1.65929
751052188,1.634264
751111841,1.628624
751167121,1.608482
751225258,1.579478
751281930,1.584312
751339830,1.679432
751442966,3.175926
751535960,1.62943
751577849,1.684266
751616110,1.742275
751654444,1.763223
751692656,1.677821
751729043,1.571421
751772400,1.555308
751812833,1.603648
751851005,1.610094
751890928,1.601231
751932662,1.594786
751974901,1.594786
752015434,1.620568
752056121,1.806729
752092918,1.577061
752180053,3.179954
752217976,1.509384
752259317,1.735024
752298147,1.852653
752335833,1.892987
752374954,1.95019
752413266,1.916352
752452705,1.763223
752489238,1.696352
752527402,1.725356
752567116,1.749526
752605592,1.746303
752643206,1.714882
752681156,1.690712
752718070,1.677015
752755189,1.72455
752841369,1.600426
752882655,1.588341
752922447,3.170286
752963455,1.56981
753005246,1.664124
753047472,1.729384
753086358,1.743886
753127934,1.764834
753167875,1.665736
753209974,1.531138
753253121,1.495688
753293027,1.526304
753336639,1.50455
753378968,1.471517
753424713,1.494882
753467534,1.510996
753553928,1.458627
753599938,1.397345
753639853,2.117821
753683084,1.555308
753724667,1.647155
753767533,1.751943
753809165,1.775308
753850209,1.755972
753891570,1.655262
753932932,1.589146
753975833,1.610094
754015819,1.59398
754056785,1.585924
754098137,1.553697
754141014,1.542417
754183674,1.635875
754269705,1.470712
754314430,1.59962
754355722,0.7510414
754400159,1.581895
754443718,1.668153
754483933,1.747109
754529115,1.792227
754573199,1.723745
754615951,1.563365
754666079,1.585924
754708053,1.614928
754754782,1.597203
754796324,1.560948
754838052,1.552085
754881705,1.548862
754928515,1.751943
755019041,1.520664
755064140,3.173509
755107024,1.550474
755152381,1.661707
755194810,1.739052
755241878,1.796255
755287979,1.775308
755334565,1.592369
755378202,1.560948
755426925,1.573033
755472915,1.573838
755516726,1.554502
755558945,1.544028
755601632,1.555308
755650440,1.606871
755696877,1.776114
755785418,1.526304
755830201,0.8743603
755872821,1.685878
755918701,1.780948
755963878,1.84379
756008336,1.894598
756056193,1.805118
756102904,1.664124
756145674,1.691517
756191503,1.681044
756235051,1.67621
756283172,1.641515
756326121,1.650428
756373393,1.660096
756419987,1.718105
756468157,1.577061
756563966,1.415876
756615086,1.661707
756662427,1.748721
756707142,1.81398
756754566,1.815592
756803662,1.704408
756854767,1.614122
756903722,1.620568
756955568,1.631847
757003647,1.600426
757050470,1.614928
757101090,1.60526
757156055,1.600426
757212216,1.495688
757266920,1.739858
757316570,1.577867
757421517,1.760806
757471295,1.764028
757519860,1.614122
757571185,1.563365
757620130,1.577867
757668508,1.567393
757722192,1.52872
757772672,1.531943
757821923,1.560948
757875692,1.576255
757923995,1.493271
757977294,3.16948
758026414,1.589146
758077494,1.673793
758126609,1.794644
758176907,1.826871
758275131,1.606871
758322255,1.620568
758373835,1.613317
758425562,1.573033
758481646,1.565782
758533601,1.588341
758582212,1.789004
758630607,1.552085
758687302,1.772891
758737501,1.32
758789976,1.689101
758840012,1.780948
758890402,1.85507
758939934,1.816397
758994747,1.606871
759048117,1.622985
759142509,1.601231
759194010,1.606065
759243254,1.580284
759295373,1.695546
759345160,1.535166
759394181,1.507773
759447372,1.086303
759501700,1.669764
759559149,1.76564
759613454,1.81962
759668644,1.798673
759723590,1.647155
759773527,1.685072
759826089,1.654456
759884795,1.631041
759938325,1.618956
760042491,1.742275
760102582,1.581895
760157570,2.938201
760209971,1.526304
760265635,1.455404
760316887,1.770474
760374752,1.71891
760435615,1.316777
760492113,1.535166
760548606,1.540806
760606084,1.585118
760659283,1.544028
760716543,1.603648
760769256,1.722133
760823737,1.531138
760882242,3.1155
760982663,1.725356
761043472,1.834122
761099164,1.835733
761153454,1.661707
761207472,1.619762
761262750,1.620568
761323304,1.573033
761384311,1.565782
761440898,1.661707
761497694,1.503745
761557539,2.166162
761618168,1.569004
761677317,1.667347
761734925,1.766445
761790107,1.782559
761847698,1.622985
761951060,1.643932
762010597,1.627819
762067602,1.624596
762125716,1.833316
762180240,1.553697
762236164,2.317679
762294625,1.625402
762353410,1.755972
762409913,1.857537
762499179,1.715688
762533665,1.618956
762569035,1.621373
762605308,1.657679
762639955,1.647155
762677563,1.618151
762715463,1.626207
762791556,1.663319
762830320,1.872845
762868116,1.544834
762905186,1.556919
762941477,3.17512
762980666,1.436017
763019549,1.633458
763059338,1.685072
763098574,1.748721
763136171,1.807535
763176009,1.779336
763216492,1.62379
763258813,1.570616
763302301,1.602037
763340994,1.589952
763385542,1.577867
763468497,1.56981
763507738,1.581895
763547096,1.766445
763587350,1.615734
763626998,1.531138
763665167,1.681044
763705459,0.8518013
763745458,1.625402
763784154,1.690712
763821175,1.766445
763861123,1.845402
763899590,1.850236
763939802,1.721328
763979541,1.595592
764021432,1.610094
764063423,1.640709
764144234,1.59398
764186958,1.602037
764229794,1.612511
764267408,1.639904
764308369,1.657679
764351161,1.901044
764390987,1.616539
764438505,1.570616
764480093,2.480476
764523973,1.706825
764565209,1.790616
764605138,1.859149
764645940,1.902655
764689900,1.923603
764732414,1.769668
764775357,1.669764
764861237,1.697963
764904098,1.666541
764944270,1.643932
764987525,1.663319
765029942,1.645544
765072587,1.673793
765114033,1.801895
765160195,1.743886
765200540,1.611705
765241702,1.802701
765281651,1.216017
765321752,1.689101
765368255,1.751943
765410573,1.840568
765455342,1.876068
765500212,1.802701
765586150,1.612511
765629625,1.625402
765672847,1.616539
765715047,1.583507
765758880,1.580284
765805536,1.556113
765846698,1.569004
765891166,1.725356
765932990,1.553697
765976537,1.510996
766017187,2.499007
766063367,1.431183
766107070,1.60526
766153986,1.693129
766202899,1.781753
766250150,1.763223
766335966,1.556113
766378829,1.577061
766424070,1.542417
766470312,1.521469
766519872,1.533555
766565097,1.532749
766613082,1.556919
766657484,1.578672
766699864,1.780142
766747638,1.523081
766797759,1.470712
766851153,1.087915
766902947,1.673793
766953715,1.753555
767011336,1.848624
767057232,1.818814
767143161,1.581089
767192162,1.600426
767239597,1.595592
767285411,1.556919
767334171,1.549668
767382512,1.548862
767429878,1.558531
767480210,1.749526
767525093,1.511801
767573835,1.497299
767621157,1.402179
767669786,1.664124
767716442,1.740664
767763000,1.786587
767811348,1.810758
767856134,1.736635
767951293,1.586729
768001633,1.596397
768055604,1.585924
768104676,1.581089
768153537,1.607677
768200511,1.640709
768254748,1.820426
768304855,1.610899
768353583,1.550474
768402028,1.130616
768450068,1.776114
768497206,1.889764
768549664,1.983223
768600648,2.020284
768651166,1.833316
768700271,1.750332
768793292,1.753555
768843653,1.779336
768890719,1.762417
768937783,1.764028
768990847,1.884124
769039536,1.674598
769092082,1.598814
769141314,1.244266
769192435,1.715688
769244625,1.782559
769293780,1.829288
769343636,1.805923
769399487,1.616539
769450432,1.56981
769504680,1.568199
769558667,1.532749
769656059,1.512607
769707410,1.536777
769759093,1.650428
769806751,1.445736
769859715,2.896306
769915936,1.519052
769967493,1.590758
770019918,1.689906
770073789,1.731801
770124228,1.606871
770175886,1.514218
770227288,1.523081
770278536,1.513413
770332346,1.500522
770388297,1.498105
770446434,1.51019
770542535,1.467489
770595460,1.872039
770649771,1.448153
770704831,1.622179
770762937,1.722939
770820503,1.775308
770874792,1.631041
770929254,1.560142
770987853,1.56981
771046425,1.572227
771103338,1.574644
771158684,1.572227
771213037,1.751138
771268428,1.519858
771322351,1.499716
771378536,0.9106157
771480153,1.741469
771533010,1.801089
771587795,1.809146
771642382,1.587535
771697785,1.598814
771751916,1.588341
771807253,1.573033
771862798,1.568199
771918056,1.573033
771973273,1.706825
772028747,1.524692
772082633,1.48038
772138087,1.234548
772195260,1.663319
772250864,1.757583
772306432,1.807535
772406545,1.600426
772462486,1.611705
772517140,1.598814
772573732,1.571421
772631097,1.561753
772689097,1.602843
772747163,1.789004
772800188,1.548862
772857317,3.175926
772915628,1.618151
772976247,1.730996
773036067,1.831705
773092513,1.783365
773156243,1.581895
773212215,1.759194
773272281,1.519858
773376743,1.531943
773466280,1.642321
773503740,1.618151
773539845,1.503745
773576583,1.397345
773613469,2.359574
773648155,1.660902
773684648,1.531943
773719849,1.75436
773756095,1.858343
773793389,1.772891
773833888,1.971138
773871376,2.046871
773908164,1.611705
773948737,1.705214
773986883,1.655262
774063547,1.559336
774104550,1.448958
774142832,1.585924
774181552,1.435212
774225202,1.775308
774264512,1.508579
774305878,1.512607
774344828,2.921282
774380493,1.562559
774420023,1.673793
774460188,1.750332
774500367,1.770474
774541608,1.847819
774579790,1.856732
774619669,1.690712
774657077,1.658485
774742991,1.618151
774781508,1.561753
774821538,1.616539
774859047,1.51583
774900480,1.664124
774937055,1.680238
774977188,1.490854
775014509,1.421515
775050992,2.831801
775093922,1.606871
775135278,1.703603
775176198,1.749526
775218426,1.892181
775258371,1.840568
775299674,1.682655
775339432,1.577061
775421844,1.661707
775463251,1.600426
775505495,1.562559
775545945,1.669764
775588942,1.607677
775629104,1.796255
775670620,1.498105
775709903,1.552085
775752004,3.167063
775794297,1.560142
775839497,1.685072
775887432,1.772891
775933215,1.865594
775975432,1.82526
776017479,1.624596
776061652,1.554502
776153400,1.577867
776200335,1.581089
776244119,1.577061
776289179,1.582701
776332407,1.760806
776374152,1.650428
776419468,1.554502
776469203,3.172703
776521075,1.614928
776571396,1.709242
776615662,1.815592
776672406,1.853458
776716891,1.779336
776762000,1.614928
776808168,1.600426
776853605,1.615734
776939159,1.587535
776987632,1.577061
777033199,1.615734
777078672,1.730996
777126321,1.540806
777170948,1.793838
777219157,1.241849
777264632,1.65929
777310479,1.748721
777357446,1.842179
777401038,1.864788
777448856,1.698769
777491809,1.603648
777536645,1.621373
777585372,1.635875
777635577,1.600426
777728987,1.587535
777773947,1.763223
777817293,1.679432
777868785,1.556919
777914370,3.160618
777961100,1.56417
778005865,1.668153
778048515,1.747109
778092886,1.832511
778142551,1.845402
778189181,1.638292
778236957,1.571421
778283786,1.608482
778333305,1.590758
778380964,1.589952
778426655,1.576255
778514715,1.602843
778563013,1.823648
778608406,1.537583
778659565,1.712465
778708537,1.297441
778758592,1.66493
778804273,1.761611
778850302,1.842179
778897381,1.863983
778947530,1.655262
778996131,1.594786
779049126,1.631847
779102880,1.621373
779152620,1.614122
779201437,1.610094
779248986,1.627819
779340198,1.721328
779393172,1.734219
779448792,1.627819
779498743,2.839052
779551491,1.684266
779602585,1.800284
779650500,1.905878
779699893,1.938105
779747682,1.790616
779796893,1.657679
779849014,1.690712
779900250,1.696352
779955306,1.641515
780006902,1.63507
780057076,1.625402
780106941,1.652039
780198837,1.613317
780253144,1.581895
780306817,1.149146
780357246,1.667347
780409038,1.753555
780466660,1.869622
780522311,1.806729
780574110,1.608482
780625233,1.595592
780677074,1.618956
780729582,1.586729
780779246,1.576255
780831882,1.56417
780884251,1.585924
780935935,1.66493
780987283,1.54564
781083264,1.274882
781137831,1.651234
781190058,1.768862
781241303,1.850236
781291926,1.834122
781342997,1.626207
781395998,1.606065
781449062,1.600426
781500399,1.581895
781554236,1.558531
781607606,1.570616
781660752,1.56417
781712942,1.691517
781765767,1.508579
781817907,1.505356
781869191,1.138672
781965992,1.748721
782019678,1.861565
782076567,1.798673
782133477,1.550474
782184955,1.589952
782241990,1.576255
782297981,1.559336
782355306,1.53436
782412527,1.535166
782466580,1.587535
782527028,1.561753
782578781,1.503745
782636520,1.384454
782691761,1.606871
782746960,1.705214
782800893,1.814786
782900532,1.602037
782953885,1.563365
783009037,1.614122
783061628,1.589146
783114677,1.581089
783168964,1.596397
783226522,1.677821
783279640,1.647155
783335976,1.577867
783391647,1.667347
783444059,1.663319
783501932,1.78417
783559574,1.910712
783612894,1.859149
783670672,1.627013
783727238,1.62379
783825391,1.620568
783887643,1.591563
783943293,1.582701
784003014,1.764028
784058335,1.517441
784112252,1.461849
784169882,1.266825
784229624,1.673793
784288027,1.793838
784376886,1.815592
784414525,1.612511
784451015,1.570616
784490176,1.600426
784527106,1.609288
784564585,1.577867
784600544,1.555308
784686702,1.560142
784722654,1.563365
784757462,1.603648
784794060,1.809952
784828013,1.521469
784869270,1.521469
784907669,3.166258
784944735,1.315166
784984221,1.628624
785020872,1.696352
785058920,1.775308
785096947,1.844596
785134526,1.847013
785173854,1.672987
785211492,1.558531
785249373,1.582701
785330290,1.593175
785367702,1.574644
785406797,1.573838
785442803,1.559336
785482104,1.567393
785522931,1.614928
785564089,1.793838
785608966,1.540806
785652165,1.466683
785691477,1.548862
785729746,1.618151
785770856,1.697963
785810666,1.773697
785855823,1.853458
785895866,1.870428
785938017,1.67621
786025824,1.610094
786063081,1.602843
786105475,1.597203
786150158,1.574644
786198868,1.56981
786246456,1.579478
786289691,1.608482
786343034,1.799478
786384694,1.540806
786426869,1.469906
786470068,1.668153
786511641,1.624596
786551067,1.70602
786595715,1.787393
786635421,1.851847
786676120,1.854264
786764747,1.589952
786805329,1.611705
786850947,1.620568
786893888,1.598814
786938577,1.582701
786980575,1.585118
787024919,1.602843
787070456,1.785782
787109924,1.698769
787154560,1.56981
787200734,2.280618
787248176,1.485214
787292088,1.715688
787335495,1.78417
787377192,1.864788
787426079,1.915546
787519217,1.615734
787565300,1.643127
787607652,1.660096
787649539,1.644738
787696460,1.608482
787741997,1.615734
787785477,1.614928
787829340,1.725356
787874151,1.689906
787918898,1.548057
787960486,1.818009
788002367,1.134644
788048377,1.651234
788091737,1.722133
788139972,1.780948
788186191,1.850236
788278806,1.577867
788324280,1.595592
788368080,1.606871
788409791,1.582701
788456734,1.551279
788502345,1.535166
788550845,1.613317
788601921,1.585118
788647697,1.53436
788692834,2.825356
788738029,1.338531
788781131,1.666541
788828893,1.768057
788880756,1.846207
788925343,1.841373
788973929,1.638292
789067025,1.618956
789112108,1.620568
789161084,1.570616
789205873,1.574644
789250248,1.580284
789300961,1.766445
789349388,1.516635
789401136,1.481186
789447887,0.9106157
789494463,1.627013
789540851,1.704408
789589591,1.801895
789642391,1.81962
789694609,1.620568
789744854,1.573033
789793987,1.618956
789889961,1.573033
789941953,1.561753
789992485,1.595592
790042401,1.793033
790089847,1.53436
790138744,1.714882
790184669,1.169288
790235632,1.664124
790284020,1.739052
790332953,1.847013
790383063,1.827677
790433841,1.615734
790483233,1.580284
790532255,1.612511
790581776,1.585118
790631557,1.589952
790724103,1.56981
790774181,1.815592
790825812,1.524692
790874185,1.56417
790927079,1.328057
790979007,1.650428
791029168,1.786587
791081049,1.853458
791130196,1.829288
791180155,1.582701
791231172,1.601231
791281861,1.601231
791333652,1.597203
791386260,1.579478
791440125,1.570616
791488656,1.618956
791583857,1.524692
791637026,2.075926
791693181,1.593175
791747392,1.684266
791800077,1.764028
791857458,1.827677
791908161,1.682655
791961660,1.556113
792015469,1.608482
792065174,1.572227
792115892,1.571421
792167866,1.563365
792221031,1.542417
792274394,1.78981
792323849,1.500522
792376053,1.704408
792471939,1.638292
792524484,1.73019
792575989,1.802701
792628669,1.779336
792681611,1.612511
792734284,1.628624
792790127,1.654456
792843811,1.608482
792896313,1.602037
792951971,1.625402
793006076,1.769668
793060137,1.556113
793120647,1.745498
793175630,1.48602
793232727,1.721328
793286429,1.816397
793380915,1.780948
793435780,1.610094
793491560,1.621373
793547463,1.609288
793599789,1.588341
793654051,1.573033
793706734,1.589952
793762002,1.672987
793815553,1.614122
793870113,1.544028
793923816,2.3491
793982962,1.639904
794035094,1.747109
794089678,1.859954
794142444,1.850236
794194520,1.594786
794298740,1.60526
794355679,1.589952
794412876,1.577867
794470363,1.580284
794525739,1.576255
794583334,1.738247
794638618,1.532749
794693416,1.487631
794749309,1.273271
794807383,1.685072
794862178,1.782559
794920689,1.852653
794976288,1.686683
795033605,1.572227
795087532,1.60526
795144545,1.594786
795244607,1.54564
795341316,1.56417
795380530,1.684266
795417032,1.586729
795453725,1.548862
795493093,1.789004
795532499,1.187819
795576304,1.647961
795613559,1.717299
795654310,1.78981
795690761,1.876873
795725707,1.863177
795765415,1.755972
795804859,1.618151
795851188,1.643932
795895906,1.665736
795980130,1.622179
796030117,1.632653
796069426,1.634264
796106580,1.634264
796146300,1.685072
796186114,1.892181
796223832,1.56417
796266029,1.571421
796303239,3.171897
796342184,1.610899
796384151,1.706825
796420994,1.764028
796460744,1.82526
796499358,1.87929
796539982,1.822037
796579157,1.627013
796660406,1.613317
796701292,1.608482
796739553,1.613317
796781128,1.56417
796826573,1.573838
796873138,1.560948
796914984,1.586729
796955069,1.610094
796995087,1.750332
797041029,1.532749
797081485,1.53436
797122061,3.171897
797161753,1.498105
797199641,1.661707
797242831,1.692323
797284490,1.772891
797370129,1.729384
797412458,1.544834
797454258,1.527915
797497317,1.531138
797535682,1.543223
797574207,1.53436
797618396,1.530332
797659093,1.549668
797702367,1.543223
797746022,1.576255
797787926,1.82526
797830775,1.503745
797870129,1.529526
797911019,3.160618
797958806,1.619762
798001701,1.697963
798090040,1.831705
798135720,1.829288
798180992,1.627819
798222451,1.586729
798264992,1.639904
798304408,1.656873
798349669,1.638292
798397776,1.633458
798441333,1.628624
798486155,1.637487
798531598,1.842179
798573053,1.681044
798617326,1.606871
798660096,2.88417
798703448,1.384454
798749781,1.743081
798839631,1.902655
798889354,1.876068
798934318,1.717299
798979423,1.635875
799023795,1.645544
799066891,1.656068
799115493,1.62943
799164923,1.592369
799209722,1.609288
799255051,1.608482
799304434,1.774502
799354377,1.542417
799401612,1.507773
799448329,1.876068
799491578,1.624596
799537123,1.727773
799625143,1.816397
799673007,1.799478
799717708,1.626207
799764540,1.603648
799811133,1.618956
799857183,1.60526
799905163,1.592369
799951876,1.577867
800000113,1.566587
800044404,1.76
800089445,1.606065
800135236,1.544028
800179482,3.167063
800224282,1.491659
800272369,1.687489
800319131,1.75436
800412140,1.809952
800459765,1.631041
800508232,1.593175
800557140,1.618151
800602933,1.589146
800650963,1.586729
800697716,1.57545
800747731,1.585924
800796282,1.773697
800842036,1.523886
800892315,1.455404
800942701,1.046825
800995167,1.673793
801046954,1.70038
801095369,1.780948
801149980,1.782559
801238341,1.583507
801289313,1.601231
801338982,1.598814
801388442,1.573033
801434872,1.57545
801490438,1.689101
801540344,1.536777
801591938,1.473935
801639133,1.192653
801689320,1.660096
801737909,1.776919
801788550,1.844596
801836871,1.863177
801888877,1.705214
801939887,1.665736
801989291,1.655262
802087285,1.602037
802138800,1.614122
802186112,1.740664
802238041,1.539194
802290166,1.481186
802341198,1.069384
802398717,1.672987
802450659,1.750332
802505867,1.78981
802555661,1.738247
802604116,1.567393
802656226,1.573033
802712355,1.554502
802766591,1.537583
802816757,1.540806
802869015,1.693934
802961014,1.473129
803012449,3.16948
803064379,1.549668
803117136,1.669764
803166900,1.741469
803222126,1.773697
803272467,1.653651
803323992,1.581895
803375907,1.614122
803426099,1.600426
803481487,1.555308
803535414,1.581895
803588441,1.813175
803641737,1.531943
803694381,2.379716
803747744,1.555308
803845361,1.758389
803896814,1.806729
803952361,1.73019
804006251,1.589952
804059379,1.631847
804113865,1.616539
804166830,1.574644
804223992,1.590758
804275371,1.785782
804331390,1.519052
804387375,1.402179
804443915,1.145118
804500501,1.668153
804552368,1.747915
804606995,1.79545
804664436,1.729384
804760078,1.612511
804820858,1.622985
804875443,1.594786
804933465,1.585924
804989361,1.680238
805043430,1.512607
805098356,1.584312
805155830,1.332891
805218899,1.679432
805281442,1.753555
805338896,1.772891
805397084,1.610899
805466514,1.618151
805523591,1.609288
805577955,1.598814
805636746,1.602037
805739364,1.542417
805795800,1.976777
805855781,1.598814
805912722,1.705214
805969592,1.798673
806029269,1.79545
806084630,1.637487
806142877,1.639098
806199731,1.647155
806290655,1.576255
806326670,1.580284
806365178,1.798673
806399007,1.747915
806436540,1.535972
806479314,1.427155
806522032,1.174928
806603826,1.692323
806639730,1.755166
806675351,1.780142
806718573,1.794644
806757173,1.73019
806795938,1.606065
806834057,1.606065
806869299,1.621373
806909599,1.603648
806947177,1.576255
806985001,1.581089
807024654,1.579478
807064187,1.660096
807103689,1.793838
807139201,1.52872
807174018,1.531943
807259820,1.581089
807298671,1.653651
807338835,1.725356
807380206,1.813175
807422838,1.777725
807462458,1.70602
807500652,1.596397
807539390,1.585924
807582110,1.600426
807620184,1.602843
807663275,1.557725
807707998,1.550474
807748899,1.564976
807790279,1.792227
807831973,1.479574
807868980,1.485214
807953539,1.550474
807996452,1.646349
808036693,1.709242
808078608,1.774502
808123229,1.777725
808162646,1.674598
808203709,1.565782
808242828,1.579478
808283100,1.601231
808325301,1.598009
808369606,1.552085
808416062,1.577061
808458397,1.586729
808497984,1.748721
808537387,1.618151
808580190,1.539194
808669865,1.407013
808717275,1.665736
808760571,1.737441
808802512,1.805118
808851396,1.797061
808899586,1.677821
808945061,1.617345
808988970,1.640709
809032237,1.635875
809076188,1.610094
809120277,1.631847
809163796,1.614122
809207241,1.710048
809251385,1.734219
809295307,1.527915
809338767,1.836539
809423521,1.639904
809466760,1.695546
809508090,1.760806
809550767,1.777725
809593101,1.747109
809635621,1.597203
809678037,1.596397
809720681,1.632653
809766190,1.585924
809812352,1.572227
809855057,1.57545
809899637,1.585118
809943075,1.768057
809987544,1.535972
810031088,1.558531
810077636,1.166871
810166643,1.719716
810213204,1.805923
810259780,1.805118
810302535,1.722133
810349241,1.603648
810393898,1.640709
810442200,1.622985
810489341,1.590758
810536409,1.583507
810587072,1.608482
810632026,1.832511
810679076,1.525498
810725775,1.519858
810772460,0.8469672
810819003,1.647155
810864698,1.732607
810954129,1.78981
811000277,1.70602
811044402,1.571421
811089508,1.601231
811132301,1.603648
811180030,1.593175
811225892,1.573033
811274212,1.556919
811321352,1.689906
811368892,1.494076
811417732,1.423127
811466994,1.080664
811510994,1.597203
811559258,1.679432
811607395,1.793033
811655757,1.793033
811756458,1.593175
811805445,1.641515
811855008,1.614928
811902861,1.582701
811947770,1.580284
811994579,1.685072
812043946,1.634264
812093191,1.549668
812138945,3.173509
812188716,1.606871
812235600,1.690712
812287119,1.808341
812336172,1.831705
812388441,1.805118
812436546,1.634264
812488437,1.635875
812576584,1.607677
812626633,1.588341
812672829,1.558531
812720156,1.738247
812772563,1.551279
812824841,1.473129
812875199,0.9839323
812926131,1.639904
812977305,1.73583
813027607,1.789004
813076246,1.797061
813126130,1.626207
813177446,1.613317
813228806,1.651234
813279048,1.610094
813329529,1.589952
813424326,1.758389
813475805,1.499716
813523453,1.458627
813575021,1.091943
813625579,1.620568
813680422,1.718105
813734418,1.772891
813785675,1.714882
813835437,1.558531
813889715,1.586729
813943533,1.593175
814001471,1.553697
814054229,1.554502
814110217,1.726967
814163380,1.483603
814212073,2.616635
814308080,1.651234
814365162,1.794644
814426555,1.837345
814485375,1.714076
814540106,1.640709
814596381,1.677821
814663323,1.665736
814717578,1.602037
814771022,1.813175
814825636,1.581089
814882051,1.482797
814935354,0.8445502
814992685,1.647155
815046495,1.773697
815101471,1.812369
815159904,1.729384
815257680,1.602037
815313214,1.613317
815368446,1.60526
815423520,1.590758
815479595,1.619762
815536977,1.687489
815590545,1.54564
815645418,3.146921
815704774,1.626207
815766608,1.748721
815822949,1.851847
815876842,1.793033
815930397,1.614928
815991521,1.639904
816048407,1.654456
816105075,1.602843
816202058,1.615734
816256122,1.814786
816315096,1.515024
816371511,3.166258
816428942,1.601231
816486356,1.702797
816543661,1.791421
816601990,1.785782
816657598,1.586729
816711205,1.619762
816771963,1.613317
816828974,1.571421
816886856,1.552085
816945058,1.689101
817003958,1.529526
817061424,1.44493
817162270,1.621373
817257497,1.606871
817294489,1.365924
817333366,1.025022
817374163,0.9629847
817413749,0.9291462
817452333,0.9944059
817492577,0.9122271
817526876,0.9581507
817568221,0.8727489
817612363,1.066162
817652200,1.583507
817693192,2.253175
817732656,2.317679
817769218,2.175024
817809984,2.150854
817888582,2.440948
817926136,2.372465
817966578,2.335404
818006901,2.389384
818051839,2.311234
818089370,2.158105
818126979,1.988057
818162816,1.869622
818200843,1.835733
818245955,1.744692
818288047,1.696352
818327233,1.689101
818365308,1.660902
818411030,1.677015
818454096,1.769668
818495228,1.563365
818577327,3.007489
818614947,1.258769
818653494,1.651234
818692218,1.738247
818732534,1.807535
818772119,1.838956
818812086,1.801895
818851768,1.637487
818891031,1.567393
818932399,1.577061
818970796,1.57545
819011876,1.544028
819052950,1.510996
819092395,1.497299
819131609,1.515024
819172730,1.626207
819253736,1.467489
819296302,1.375592
819339331,1.068579
819380554,1.572227
819423266,1.644738
819464147,1.708437
819504986,1.775308
819546616,1.739052
819587876,1.610094
819631362,1.52872
819675302,1.510996
819719050,1.506162
819757236,1.489242
819802608,1.496493
819845717,1.493271
819891108,1.536777
819980730,1.448153
820024910,1.365924
820073401,0.9484824
820115436,1.573033
820160597,1.641515
820203031,1.735024
820245796,1.763223
820287399,1.792227
820330167,1.637487
820373680,1.621373
820416468,1.628624
820457010,1.655262
820499944,1.598009
820541936,1.601231
820586714,1.628624
820629194,1.803506
820714820,1.574644
820759934,2.535262
820803731,1.410236
820851988,1.94455
820900412,1.921186
820942265,1.852653
820986972,1.794644
821031975,1.663319
821078781,1.59962
821131290,1.636681
821175498,1.632653
821222405,1.557725
821267874,1.572227
821310260,1.602037
821354622,1.81962
821403087,1.519858
821494204,1.054882
821537720,1.643932
821583573,1.693129
821627354,1.777725
821672204,1.78981
821717283,1.717299
821764437,1.552891
821807715,1.606871
821856947,1.612511
821900135,1.574644
821944146,1.533555
821989786,1.556919
822033611,1.726162
822084473,1.482797
822131659,1.471517
822178131,2.284646
822269660,1.66493
822316577,1.746303
822365569,1.750332
822413999,1.691517
822460991,1.554502
822511925,1.602037
822561286,1.588341
822608513,1.570616
822657027,1.560142
822703943,1.56981
822754165,1.741469
822799865,1.53436
822847109,1.548057
822897495,2.421611
822949202,1.608482
823001886,1.697157
823095577,1.792227
823144301,1.688295
823197127,1.610094
823248350,1.634264
823304137,1.610094
823354487,1.610094
823406007,1.585924
823455777,1.798673
823503764,1.555308
823554222,1.556919
823608186,2.105736
823668225,1.631847
823725181,1.732607
823776900,1.790616
823831764,1.750332
823894711,1.602843
823985634,1.60526
824035925,1.589952
824088907,1.540806
824139776,1.558531
824190280,1.782559
824244594,1.482797
824295098,1.863983
824346362,1.37962
824401899,1.632653
824453059,1.742275
824505623,1.757583
824558348,1.713271
824608667,1.596397
824661844,1.618151
824714905,1.631847
824764956,1.598814
824860847,1.60526
824917229,1.868011
824973774,1.544834
825026757,2.867251
825079475,1.610094
825132261,1.697157
825190500,1.780142
825243275,1.790616
825297252,1.696352
825349266,1.601231
825400524,1.645544
825454710,1.612511
825509657,1.569004
825563279,1.579478
825616920,1.67621
825671595,1.626207
825769612,3.173509
825820656,1.618956
825870893,1.695546
825925807,1.751943
825979926,1.779336
826034815,1.657679
826090407,1.585924
826146910,1.614122
826200686,1.597203
826254572,1.582701
826312237,1.559336
826366086,1.776114
826423919,1.507773
826484893,2.914031
826542116,1.606871
826596431,1.70602
826696926,1.789004
826749262,1.639098
826807292,1.625402
826868436,1.617345
826924652,1.59398
826982272,1.582701
827039645,1.607677
827093970,1.813175
827151051,1.512607
827204900,3.178343
827260312,1.618956
827318619,1.71891
827378477,1.834122
827441313,1.764834
827496686,1.602037
827551291,1.624596
827648227,1.589146
827704512,1.581089
827766303,1.60526
827827378,1.669764
827885164,1.530332
827941729,2.201611
828005177,1.63507
828064632,1.73019
828123211,1.767251
828212811,1.59398
828251052,1.580284
828289103,1.610094
828328155,1.606065
828365635,1.579478
828403799,1.571421
828442702,1.567393
828525099,1.780948
828564324,1.714882
828600352,1.544834
828638165,1.442463
828675258,3.136448
828710556,1.56417
828746088,1.642321
828783424,1.731801
828820726,1.78981
828859676,1.81962
828895659,1.807535
828933311,1.67621
828972860,1.595592
829011987,1.618956
829051604,1.612511
829089037,1.588341
829170850,1.591563
829210835,1.580284
829251445,1.752749
829291733,1.669764
829328607,1.522275
829370781,1.473935
829409577,1.45057
829451853,1.602843
829494404,1.691517
829535128,1.755166
829579802,1.798673
829617557,1.786587
829659414,1.677821
829697393,1.59398
829737787,1.631847
829776699,1.63507
829861105,1.582701
829902167,1.571421
829943295,1.589146
829981448,1.735024
830020632,1.618151
830061910,1.529526
830103079,2.222559
830142428,1.068579
830185138,1.622985
830227036,1.677015
830267130,1.747915
830310939,1.766445
830355753,1.739052
830395964,1.600426
830439968,1.611705
830483554,1.610094
830568301,1.574644
830617938,1.582701
830659342,1.618956
830703327,1.831705
830744225,1.539194
830782794,1.558531
830826515,3.157395
830869511,1.584312
830914881,1.684266
830954480,1.75436
830996539,1.81962
831037134,1.818009
831080056,1.717299
831121735,1.627013
831166718,1.641515
831207104,1.652039
831298372,1.59398
831339670,1.606065
831381686,1.722133
831424551,1.743081
831465655,1.533555
831511858,1.833316
831554827,0.9782926
831598909,1.632653
831644214,1.712465
831687656,1.780948
831732074,1.78417
831775694,1.715688
831819504,1.59398
831867225,1.60526
831913419,1.607677
831957475,1.593175
832045276,1.573838
832088087,1.665736
832134710,1.620568
832175960,1.511801
832221799,2.109764
832268505,1.339336
832318293,1.643932
832367164,1.739052
832411034,1.788199
832453899,1.776919
832500872,1.658485
832548132,1.593175
832597366,1.628624
832642830,1.632653
832692788,1.59398
832737926,1.596397
832827827,1.85507
832876344,1.557725
832927982,2.3064
832981787,1.601231
833034256,1.684266
833083206,1.773697
833130952,1.773697
833189728,1.708437
833237048,1.587535
833284971,1.638292
833333893,1.610094
833384223,1.607677
833431413,1.565782
833482600,1.610094
833530044,1.806729
833576193,1.50455
833670753,1.102417
833718051,1.614928
833769716,1.703603
833817950,1.775308
833867270,1.772085
833917628,1.633458
833969022,1.651234
834015591,1.639098
834065566,1.653651
834117886,1.603648
834174316,1.610094
834224505,1.760806
834274262,1.535166
834322585,2.844692
834376522,1.56981
834427462,1.686683
834523354,1.776114
834571255,1.727773
834618381,1.582701
834670684,1.615734
834721400,1.627819
834770275,1.596397
834821673,1.585924
834870267,1.637487
834921563,1.600426
834970888,1.510996
835020447,3.171897
835073993,1.576255
835123055,1.704408
835174728,1.780142
835227003,1.772891
835280126,1.654456
835372254,1.590758
835419730,1.611705
835476583,1.573838
835528068,1.597203
835582737,1.826871
835638422,1.51583
835691368,2.503035
835743808,1.473935
835797101,1.638292
835846706,1.774502
835899142,1.767251
835957345,1.678627
836010063,1.613317
836065179,1.664124
836118805,1.616539
836169364,1.625402
836266253,1.673793
836317474,1.540806
836369910,3.166258
836426477,1.607677
836482217,1.726162
836539653,1.82526
836594555,1.786587
836647963,1.628624
836701097,1.619762
836753243,1.646349
836812192,1.595592
836869436,1.594786
836922887,1.779336
836978055,1.523886
837039691,2.864028
837099590,1.573838
837197113,1.763223
837251931,1.811563
837306109,1.667347
837360302,1.577061
837419831,1.606871
837475001,1.589952
837530801,1.571421
837586298,1.585924
837642802,1.839762
837698251,1.505356
837752361,2.347489
837807979,1.573838
837865120,1.685878
837918290,1.758389
837972482,1.787393
838025839,1.652845
838121569,1.609288
838180162,1.596397
838237691,1.573838
838292773,1.576255
838350476,1.705214
838404725,1.581895
838459033,1.532749
838515067,1.334502
838570773,1.635875
838627880,1.717299
838687271,1.780142
838746621,1.732607
838800126,1.607677
838857833,1.651234
838915166,1.657679
838977189,1.614122
839079541,1.680238
839175548,1.57545
839210541,1.690712
839250721,0.942037
839287306,1.663319
839324646,1.710854
839360785,1.760806
839398852,1.815592
839439375,1.809952
839477406,1.743886
839512436,1.62943
839550086,1.622179
839586522,1.654456
839623096,1.643127
839659352,1.610094
839697758,1.595592
839783143,1.59962
839820645,1.627819
839860091,1.834928
839899617,1.538389
839934997,1.547251
839977424,3.171897
840017475,1.60526
840056496,1.66493
840103365,1.747915
840141348,1.800284
840181794,1.807535
840219445,1.742275
840255684,1.611705
840294040,1.595592
840336038,1.624596
840376805,1.616539
840460681,1.580284
840501028,1.579478
840538474,1.577061
840577671,1.773697
840615970,1.691517
840657539,1.51583
840694605,1.45057
840738257,0.937203
840776110,1.56417
840814916,1.62943
840852711,1.684266
840890653,1.741469
840933460,1.740664
840976181,1.63507
841018380,1.556919
841059217,1.593175
841143631,1.573838
841186092,1.563365
841226093,1.554502
841264720,1.557725
841307642,1.679432
841350524,1.677821
841390767,1.540806
841433234,1.689906
841474006,1.12417
841519052,1.606871
841558360,1.695546
841600866,1.755166
841643273,1.78417
841689272,1.768862
841736446,1.644738
841776329,1.652845
841859301,1.647155
841905598,1.622985
841949737,1.62943
842000040,1.601231
842042556,1.782559
842087138,1.531943
842127947,1.556113
842169636,3.18076
842213875,1.619762
842260285,1.674598
842312092,1.770474
842361603,1.805118
842407190,1.763223
842453493,1.613317
842509787,1.607677
842554677,1.621373
842641959,1.552085
842686945,1.583507
842734027,1.608482
842776926,1.768862
842824742,1.51583
842869472,1.743886
842915353,1.084692
842962105,1.602037
843006113,1.695546
843053151,1.769668
843098125,1.763223
843143775,1.683461
843190570,1.579478
843237230,1.602037
843280012,1.602843
843327616,1.586729
843419072,1.573838
843470684,1.734219
843518434,1.518247
843563683,1.491659
843607894,3.057441
843656518,1.618151
843702950,1.690712
843751815,1.774502
843796777,1.798673
843841446,1.742275
843891053,1.611705
843939174,1.617345
843986977,1.610094
844033967,1.608482
844083548,1.582701
844131300,1.618151
844219626,1.553697
844264576,1.392511
844314996,0.9235065
844361921,1.595592
844410689,1.702797
844458405,1.779336
844508563,1.748721
844555956,1.635875
844601262,1.589952
844652922,1.627819
844700370,1.606065
844753381,1.596397
844805934,1.579478
844855559,1.827677
844904495,1.522275
844952569,1.59962
845040115,1.598814
845090452,1.677015
845146210,1.732607
845196267,1.758389
845248846,1.622179
845299964,1.620568
845347722,1.625402
845398758,1.621373
845448443,1.585924
845497808,1.717299
845550002,1.581089
845603393,1.524692
845659871,1.422321
845709960,1.630236
845760019,1.702797
845810179,1.776114
845904595,1.655262
845961279,1.610094
846015915,1.639098
846068898,1.590758
846122107,1.570616
846179179,1.767251
846233760,1.556919
846286673,1.48602
846338438,1.300664
846388556,1.614928
846439569,1.712465
846492934,1.775308
846546179,1.751138
846597775,1.637487
846649000,1.612511
846700556,1.631847
846795428,1.606871
846847753,1.673793
846900004,1.620568
846954430,1.54564
847005492,2.973651
847055983,1.611705
847106311,1.689101
847157711,1.768862
847212238,1.760806
847267203,1.624596
847320732,1.611705
847373884,1.633458
847426717,1.57545
847480200,1.576255
847532264,1.589146
847586360,1.842179
847683935,1.642321
847739759,1.457821
847795565,1.687489
847846135,1.743081
847901823,1.768862
847956433,1.710854
848014731,1.614928
848072089,1.641515
848131216,1.601231
848183440,1.586729
848242032,1.589146
848299702,1.823648
848354635,1.53436
848408025,3.170286
848462277,1.584312
848517949,1.699574
848613617,1.768862
848666432,1.679432
848720945,1.618956
848774166,1.642321
848829910,1.609288
848882880,1.583507
848939379,1.593175
848995724,1.786587
849051255,1.530332
849105849,3.167869
849161954,1.602843
849215021,1.70038
849272755,1.805118
849331917,1.764028
849388542,1.613317
849452576,1.628624
849552409,1.610094
849609799,1.60526
849665132,1.804312
849719742,1.547251
849777012,1.446541
849834448,1.080664
849891699,1.661707
849947410,1.73583
850005309,1.769668
850092128,1.609288
850127229,1.598814
850165908,1.62943
850199777,1.639904
850239301,1.608482
850273961,1.587535
850309734,1.560142
850387433,1.624596
850423861,1.850236
850462273,1.536777
850500398,1.556919
850536971,3.181566
850575981,1.413458
850614529,1.643932
850653822,1.717299
850688215,1.764028
850724680,1.79545
850765903,1.772891
850804745,1.667347
850841403,1.603648
850880228,1.638292
850917534,1.682655
850955322,1.636681
851033835,1.597203
851073300,1.587535
851112658,1.622985
851156075,1.867205
851198602,1.544834
851236067,1.535972
851273388,3.172703
851315160,1.585924
851356816,1.668153
851402963,1.748721
851442654,1.811563
851483747,1.796255
851523418,1.701991
851559236,1.602843
851600041,1.610899
851643146,1.63507
851733899,1.588341
851780776,1.600426
851824256,1.595592
851865298,1.63507
851918021,1.733413
851959431,1.547251
852001391,1.650428
852044527,0.9291462
852087979,1.610094
852129601,1.688295
852175162,1.769668
852215811,1.775308
852258152,1.750332
852304569,1.628624
852344330,1.613317
852388310,1.631041
852473244,1.601231
852516113,1.609288
852558328,1.615734
852602039,1.627819
852642968,1.717299
852687428,1.562559
852734351,1.557725
852784531,1.93166
852829143,1.616539
852869494,1.698769
852910573,1.777725
852958305,1.824454
853001346,1.810758
853047171,1.651234
853089419,1.62943
853131034,1.647155
853219291,1.631041
853261398,1.607677
853304757,1.586729
853348222,1.742275
853394096,1.634264
853439727,1.52872
853480771,2.395024
853521836,1.174928
853568946,1.639098
853611520,1.718105
853658545,1.79545
853702991,1.791421
853748851,1.678627
853793766,1.566587
853837450,1.612511
853886478,1.624596
853975036,1.567393
854024447,1.580284
854074435,1.584312
854121005,1.829288
854165346,1.530332
854209999,1.432795
854251429,2.660948
854298747,1.583507
854349080,1.67621
854394996,1.749526
854443337,1.771279
854490868,1.701991
854536307,1.583507
854582731,1.612511
854626257,1.622179
854671875,1.60526
854763969,1.614928
854814864,1.606065
854867682,1.817203
854914235,1.535972
854962047,1.444124
855008911,1.191041
855057038,1.637487
855108623,1.734219
855160285,1.848624
855206487,1.812369
855255248,1.672181
855309424,1.616539
855361958,1.636681
855410194,1.597203
855458433,1.57545
855507814,1.577867
855600754,1.780142
855649607,1.565782
855698181,1.52872
855746227,3.168675
855793735,1.579478
855843955,1.710048
855895511,1.749526
855945063,1.774502
855993904,1.678627
856042331,1.598814
856089967,1.600426
856136633,1.615734
856184413,1.588341
856231346,1.558531
856281296,1.581089
856330933,1.745498
856422233,1.45057
856473588,1.113696
856523835,1.608482
856573373,1.686683
856623995,1.771279
856674230,1.742275
856725590,1.652039
856777468,1.618151
856829309,1.650428
856877233,1.622985
856930691,1.596397
856981833,1.601231
857035026,1.747109
857086649,1.523886
857142579,1.527915
857190794,0.9444541
857286521,1.744692
857339790,1.793033
857389887,1.767251
857439151,1.621373
857489054,1.615734
857538854,1.62943
857588394,1.60526
857636694,1.595592
857686230,1.607677
857736810,1.794644
857788311,1.581089
857838723,1.556113
857891599,1.967915
857944189,1.663319
857995296,1.734219
858048418,1.826066
858145182,1.677821
858195226,1.600426
858252139,1.639904
858306890,1.628624
858361642,1.607677
858422547,1.602843
858475009,1.798673
858530015,1.508579
858583782,2.08076
858634842,1.451376
858687641,1.653651
858744292,1.73583
858800761,1.740664
858851851,1.639904
858908093,1.584312
858964575,1.610094
859062270,1.569004
859118290,1.577061
859169610,1.706825
859226657,1.521469
859278736,1.471517
859331745,1.133033
859383613,1.628624
859436022,1.704408
859494629,1.734219
859551915,1.667347
859609817,1.586729
859666521,1.627819
859721143,1.59962
859776657,1.583507
859829026,1.606871
859881904,1.806729
859980674,2.225782
860035411,1.508579
860088597,1.692323
860143963,1.789004
860198842,1.771279
860257888,1.668153
860311436,1.626207
860367096,1.655262
860424985,1.618956
860485923,1.614122
860548265,1.725356
860604548,1.587535
860658528,1.512607
860717643,0.824358
860774547,1.627013
860838087,1.734219
860938038,1.710854
860999967,1.556919
861085224,1.598009
861122825,1.589146
861161560,1.566587
861207860,1.569004
861249500,1.611705
861286026,1.792227
861325413,1.486825
861374502,1.476351
861412624,3.172703
861449893,1.560142
861488079,1.643932
861527050,1.707631
861563883,1.76
861605140,1.776114
861688027,1.618151
861725662,1.598009
861768081,1.631041
861804648,1.628624
861845176,1.606065
861884353,1.601231
861922350,1.598009
861961058,1.639098
862001160,1.848624
862039920,1.526304
862081976,1.476351
862124082,3.043745
862172504,1.609288
862213706,1.712465
862253180,1.743081
862292502,1.767251
862381177,1.63507
862420650,1.560142
862462542,1.578672
862501309,1.602037
862539119,1.56417
862580986,1.530332
862621069,1.56417
862662227,1.639098
862701985,1.699574
862743050,1.493271
862786260,1.554502
862825854,1.30872
862865303,1.570616
862909031,1.65929
862949873,1.711659
862992932,1.730996
863075313,1.618956
863118342,1.592369
863159835,1.634264
863198075,1.622985
863245617,1.606065
863286987,1.618956
863330282,1.625402
863374379,1.742275
863417527,1.548862
863458179,1.628624
863500770,1.457015
863541804,1.589952
863588128,1.729384
863636271,1.769668
863679685,1.753555
863725618,1.705214
863813600,1.646349
863855703,1.62943
863900078,1.639098
863940380,1.618151
863981753,1.72455
864027165,1.695546
864074946,1.524692
864124851,2.982513
864169521,1.299052
864212996,1.601231
864254648,1.709242
864299111,1.711659
864346642,1.654456
864393692,1.634264
864438509,1.631041
864484995,1.628624
864576750,1.628624
864623586,1.745498
864670794,1.505356
864714111,1.624596
864758605,2.972845
864804387,1.542417
864852392,1.606871
864897581,1.72455
864946061,1.624596
864991368,1.668153
865036611,1.573033
865083428,1.592369
865129043,1.66493
865172841,1.620568
865217066,1.640709
865260931,1.89057
865349034,1.633458
865394168,1.773697
865438591,1.578672
865483782,1.674598
865531511,1.757583
865578414,1.723745
865624771,1.681044
865671519,1.641515
865716508,1.67057
865761901,1.650428
865807472,1.625402
865855321,1.614928
865903825,1.601231
865952346,1.842985
865995302,1.583507
866044838,1.568199
866134986,1.619762
866182876,1.685072
866232248,1.797061
866283836,1.813175
866328922,1.73583
866379910,1.588341
866428351,1.622985
866475932,1.631041
866521945,1.610899
866571099,1.622179
866618096,1.607677
866664997,1.604454
866710976,1.631847
866765954,1.89057
866812767,1.582701
866862067,1.526304
866953703,1.63507
867003485,1.714076
867053712,1.833316
867103661,1.815592
867156308,1.643127
867205797,1.576255
867251185,1.593175
867303359,1.60526
867354399,1.590758
867404461,1.558531
867461917,1.568199
867509938,1.59962
867559291,1.616539
867610222,1.642321
867657953,1.640709
867708676,1.667347
867801807,1.614122
867853459,2.357157
867899831,1.544834
867950154,1.747915
868003023,1.788199
868052220,1.889764
868103458,1.818814
868151733,1.603648
868206339,1.571421
868255029,1.610094
868304793,1.574644
868355223,1.57545
868403889,1.552085
868457638,1.56417
868509882,1.597203
868561201,1.600426
868659134,1.595592
868710311,1.609288
868761952,3.089668
868810938,1.681044
868861016,1.747915
868915453,1.821231
868970752,1.841373
869020766,1.638292
869074139,1.586729
869125862,1.602037
869180333,1.595592
869230754,1.57545
869285352,1.567393
869339964,1.577867
869394207,1.603648
869452292,1.644738
869552025,1.622985
869609184,1.567393
869663980,0.9227008
869724480,1.726162
869779341,1.812369
869838175,1.858343
869887907,1.787393
869942610,1.592369
870001161,1.62379
870062955,1.602037
870122844,1.577061
870178919,1.590758
870233885,1.611705
870300902,1.615734
870357667,1.660902
870411413,1.618956
870513674,3.031659
870571397,1.706825
870625903,1.777725
870686689,1.84379
870742940,1.785782
870797905,1.598009
870857559,1.618956
870911527,1.619762
870969315,1.573838
871027071,1.588341
871082387,1.585924
871138472,1.625402
871196123,1.672987
871250971,1.733413
871310529,1.568199
871370178,1.195876
871477720,1.794644
871536162,1.859954
871591358,1.793838
871646511,1.579478
871707732,1.610899
871765844,1.596397
871822784,1.566587
871876071,1.568199
871931346,1.590758
871990818,1.702797
872079914,1.562559
872116495,1.602037
872153338,1.378009
872192249,1.640709
872226396,1.692323
872260596,1.750332
872345954,1.852653
872383510,1.758389
872423384,1.660096
872462194,1.626207
872500780,1.507773
872538813,1.631041
872573457,1.63507
872619061,1.633458
872657062,1.587535
872699573,1.602037
872741598,1.751943
872780961,1.696352
872820829,1.570616
872859612,1.570616
872896924,1.537583
872936980,1.620568
873022147,1.806729
873061755,1.692323
873101289,1.779336
873141818,1.481991
873179443,1.334502
873219938,1.868011
873257587,1.357867
873297922,1.402179
873339495,1.461044
873380077,1.714882
873426132,1.584312
873467284,1.70038
873505936,1.448153
873545402,1.522275
873583589,3.175926
873628450,1.589952
873714441,1.704408
873755619,1.838151
873798451,1.821231
873845418,1.67057
873888390,1.595592
873932374,1.585118
873971707,1.661707
874012451,1.735024
874054423,1.683461
874097443,1.726162
874137895,1.870428
874180023,1.548057
874220673,1.539194
874262573,3.163841
874304510,1.602843
874346464,1.637487
874430380,1.797061
874474330,1.78417
874513449,1.666541
874554945,1.553697
874597656,1.657679
874638532,1.62943
874682950,1.593175
874726314,1.536777
874770543,1.690712
874811690,1.608482
874854878,1.490854
874896446,1.986445
874938350,1.134644
874983104,1.589952
875026965,1.757583
875070989,1.764028
875159581,1.669764
875199838,1.556113
875245360,1.567393
875286928,1.589146
875329963,1.558531
875377850,1.567393
875424723,1.62943
875473680,1.71891
875516644,1.505356
875563893,1.967915
875607126,1.117725
875652095,1.624596
875694683,1.714882
875737902,1.777725
875783038,1.785782
875827074,1.628624
875909447,1.56981
875951256,1.581089
875993388,1.583507
876038918,1.59962
876082602,1.546445
876128083,1.677821
876174193,1.697157
876220370,1.523081
876268263,2.80602
876315087,1.538389
876358136,1.67621
876407840,1.741469
876455411,1.809146
876501729,1.810758
876555448,1.626207
876602238,1.619762
876694156,1.598814
876739279,1.591563
876782545,1.587535
876829782,1.588341
876878986,1.797867
876926958,1.523081
876972037,1.479574
877018541,1.768057
877065658,1.597203
877113057,1.696352
877162441,1.782559
877207122,1.790616
877257249,1.70038
877302636,1.613317
877350742,1.617345
877395900,1.626207
877483025,1.576255
877533509,1.588341
877582377,1.613317
877633397,1.72455
877682563,1.52872
877729486,1.478769
877778613,1.095972
877826327,1.641515
877872677,1.731801
877921031,1.809146
877970595,1.82526
878016911,1.714882
878065603,1.602843
878115230,1.637487
878165125,1.610094
878213586,1.583507
878305679,1.574644
878355493,1.618151
878408570,1.833316
878461933,1.548057
878513158,2.093651
878565640,1.533555
878616506,1.697963
878673287,1.772891
878724598,1.803506
878779517,1.701991
878827333,1.582701
878878487,1.620568
878930861,1.59398
878990719,1.56417
879048298,1.572227
879100849,1.600426
879193673,1.764028
879255782,1.536777
879306758,2.869668
879357900,1.606065
879410154,1.672181
879464306,1.777725
879515146,1.821231
879571266,1.689101
879623887,1.593175
879675194,1.610094
879729012,1.576255
879778357,1.576255
879832872,1.550474
879885404,1.566587
879938595,1.595592
879992850,1.851847
880092113,1.955024
880143384,1.472323
880199588,1.709242
880257182,1.796255
880316979,1.847819
880372073,1.65929
880423779,1.612511
880475515,1.622985
880532322,1.585924
880587164,1.585924
880640558,1.59962
880691725,1.566587
880743018,1.665736
880798919,1.675404
880854000,1.556919
880907872,2.457061
881003660,1.735024
881059935,1.831705
881113156,1.967915
881164683,1.603648
881222120,1.576255
881278316,1.628624
881334332,1.607677
881389636,1.495688
881447262,1.589146
881502687,1.590758
881554964,1.799478
881615524,1.550474
881672334,3.105832
881730963,1.589952
881790423,1.705214
881847044,1.79545
881948016,1.619762
882005448,1.619762
882058365,1.631847
882116007,1.60526
882178625,1.600426
882235740,1.551279
882294529,1.696352
882352681,1.506967
882406923,1.957441
882466344,1.554502
882521732,1.66493
882577887,1.73019
882635866,1.796255
882696045,1.604454
882758093,1.580284
882815159,1.592369
882913617,1.569004
882970391,1.56417
883028132,1.789004
883126336,1.553697
883163477,3.170286
883202889,1.585118
883245423,1.674598
883287231,1.760806
883326715,1.834928
883362915,1.874456
883399990,1.82526
883437154,1.627013
883477878,1.594786
883515929,1.611705
883554599,1.622985
883592995,1.598814
883676315,1.589146
883716182,1.577061
883753144,1.78981
883790243,1.734219
883827812,1.544834
883863949,1.48038
883902652,2.968817
883942940,1.610094
883980064,1.669764
884018104,1.743886
884057191,1.79545
884095338,1.822843
884134699,1.747915
884173787,1.593175
884211653,1.576255
884249974,1.600426
884332031,1.56981
884372823,1.535166
884415433,1.560948
884456524,1.60526
884493950,1.742275
884536655,1.529526
884575331,1.523081
884614166,2.590854
884660001,1.461849
884704111,1.647155
884750447,1.713271
884790552,1.768862
884834275,1.778531
884875939,1.679432
884915487,1.541611
884955156,1.570616
885036324,1.59398
885076614,1.573033
885116544,1.569004
885155209,1.573033
885194991,1.606065
885233386,1.830899
885273568,1.538389
885313424,1.51583
885357202,2.601327
885400058,1.609288
885441423,1.674598
885486481,1.764834
885531024,1.826871
885570606,1.779336
885616907,1.635875
885661101,1.602037
885747126,1.602037
885796287,1.594786
885838912,1.587535
885884543,1.684266
885926850,1.557725
885968043,1.570616
886011932,3.17512
886056598,1.42071
886101810,1.67057
886143982,1.768862
886186845,1.838956
886229116,1.834122
886271323,1.702797
886314465,1.589952
886355459,1.596397
886400915,1.656873
886485141,1.577061
886528481,1.589146
886570798,1.753555
886614617,1.663319
886661786,1.543223
886704644,2.114598
886750612,1.34417
886796942,1.65929
886840891,1.743886
886886430,1.86076
886929314,1.895404
886971070,1.696352
887016449,1.577867
887063616,1.595592
887107040,1.613317
887152810,1.581089
887238679,1.562559
887287199,1.769668
887330327,1.610094
887377763,1.524692
887425202,3.171092
887475556,1.560948
887525259,1.680238
887571226,1.769668
887617513,1.871234
887663814,1.811563
887716752,1.568199
887763174,1.577867
887813507,1.596397
887858597,1.577867
887906417,1.593175
887957807,1.53436
888057159,1.635875
888111435,1.638292
888159359,1.536777
888207593,3.172703
888266306,1.592369
888314843,1.684266
888362452,1.779336
888411583,1.835733
888460631,1.702797
888509506,1.56981
888559654,1.603648
888608869,1.613317
888657124,1.589952
888708815,1.588341
888757425,1.594786
888809594,1.606871
888898509,1.81962
888947230,1.592369
888996887,1.915546
889047638,1.345782
889095307,1.667347
889147790,1.790616
889201472,1.904266
889258374,1.780142
889311180,1.594786
889359431,1.600426
889409159,1.626207
889465806,1.588341
889515404,1.571421
889564200,1.59398
889612423,1.621373
889659774,1.618151
889757986,1.544028
889808001,1.519858
889858274,0.8614695
889908606,1.660096
889962222,1.760806
890010232,1.89621
890057883,1.885736
890111898,1.609288
890163235,1.579478
890216556,1.573033
890269214,1.610094
890322652,1.577061
890373357,1.566587
890422876,1.560948
890480000,1.589146
890531701,1.743886
890628191,1.561753
890682805,3.166258
890735991,1.618151
890787194,1.726967
890840620,1.826871
890890220,1.922797
890943542,1.654456
891003021,1.558531
891056892,1.592369
891113253,1.618151
891167841,1.586729
891218704,1.596397
891273098,1.607677
891325358,1.626207
891378751,1.628624
891433221,1.852653
891530963,1.542417
891589709,1.426349
891642616,1.709242
891696460,1.785782
891747655,1.95019
891802800,1.801089
891859950,1.556113
891915034,1.581895
891970420,1.609288
892030147,1.598814
892086840,1.585924
892144378,1.56417
892199383,1.59398
892255407,1.595592
892308664,1.788199
892364804,1.542417
892461913,1.526304
892518021,1.65929
892575114,1.742275
892631863,1.831705
892691183,1.603648
892746916,1.560948
892802703,1.586729
892858793,1.572227
892913520,1.580284
892969283,1.592369
893025293,1.586729
893078783,1.728579
893133920,1.598814
893190416,1.525498
893245994,1.136255
893302277,1.713271
893401900,1.910712
893457294,1.863983
893511711,1.619762
893567616,1.637487
893625980,1.62943
893685641,1.585924
893744386,1.584312
893798898,1.585118
893857987,1.59962
893913669,1.838151
894008939,1.627013
894049900,0.9500938
894092564,1.62943
894128391,1.697157
894168552,1.763223
894207490,1.858343
894287456,1.684266
894323740,1.557725
894360290,1.557725
894396875,1.569004
894435025,1.587535
894470222,1.570616
894506281,1.563365
894541207,1.565782
894578140,1.573838
894614746,1.593175
894656971,1.595592
894696026,1.733413
894735085,1.574644
894777258,1.548862
894818181,2.296731
894853889,0.942037
894937378,1.689906
894977560,1.771279
895018101,1.873651
895063425,1.815592
895101481,1.613317
895142256,1.553697
895180248,1.580284
895218401,1.593175
895258589,1.580284
895299487,1.553697
895341658,1.561753
895377188,1.590758
895417712,1.594786
895458515,1.601231
895496751,1.833316
895538224,1.541611
895617799,3.176731
895660718,1.577061
895698433,1.641515
895739716,1.725356
895776407,1.777725
895813566,1.876068
895858841,1.771279
895900397,1.564976
895942540,1.556919
895985009,1.584312
896024201,1.569004
896064367,1.554502
896102577,1.553697
896143175,1.559336
896184487,1.554502
896224933,1.621373
896306947,1.53436
896347705,1.48038
896387749,2.810854
896431447,1.598814
896471027,1.663319
896512495,1.755972
896557893,1.799478
896605993,1.803506
896653140,1.627013
896695431,1.573033
896741816,1.608482
896786778,1.619762
896835075,1.614928
896878907,1.606065
896926897,1.602843
896968564,1.655262
897054937,1.572227
897102551,1.557725
897154197,1.178151
897204751,1.657679
897250127,1.769668
897297528,1.861565
897354033,1.846207
897397224,1.642321
897440974,1.576255
897485957,1.60526
897532812,1.611705
897576551,1.594786
897624329,1.577061
897669900,1.582701
897715744,1.740664
897764611,1.608482
897853011,2.727063
897899150,1.45621
897942429,1.627819
897988189,1.71891
898033412,1.812369
898080148,1.834928
898123708,1.653651
898170124,1.57545
898217948,1.598009
898271284,1.602843
898317715,1.586729
898362942,1.560948
898407850,1.584312
898456415,1.73019
898503716,1.50455
898549653,1.527915
898634619,1.584312
898679034,1.650428
898727559,1.735024
898775059,1.801895
898822959,1.760806
898870274,1.612511
898918071,1.556919
898961697,1.585118
899006354,1.570616
899056920,1.571421
899102817,1.551279
899154002,1.666541
899201570,1.631041
899251488,1.529526
899298644,3.075166
899344580,1.354644
899443241,1.718105
899491621,1.801089
899542955,1.740664
899595159,1.596397
899644648,1.60526
899694888,1.641515
899745190,1.600426
899792809,1.611705
899844410,1.613317
899899900,1.776114
899948444,1.563365
900001030,2.730286
900051838,1.553697
900099836,1.70038
900150411,1.806729
900197910,1.872039
900289973,1.632653
900341935,1.608482
900395152,1.642321
900450159,1.587535
900499347,1.574644
900549347,1.59398
900598205,1.802701
900647732,1.521469
900701007,1.527915
900752256,1.130616
900805148,1.638292
900862076,1.773697
900917335,1.851041
900972042,1.719716
901021596,1.574644
901072394,1.606065
901168865,1.583507
901223141,1.573838
901274680,1.581895
901327001,1.821231
901378822,1.531943
901430763,1.608482
901485228,1.376397
901536438,1.652845
901586648,1.744692
901638839,1.841373
901689242,1.75436
901739710,1.569004
901791720,1.577061
901842903,1.596397
901897128,1.581895
901951753,1.56981
902046331,1.638292
902100833,1.628624
902153540,1.567393
902207656,3.125168
902258659,1.593175
902312612,1.693129
902367098,1.798673
902421950,1.796255
902477102,1.608482
902529970,1.57545
902585858,1.610899
902637447,1.594786
902698186,1.596397
902755247,1.589146
902814337,1.772085
902866446,1.529526
902967699,1.216823
903022893,1.660096
903077649,1.751943
903132577,1.81398
903186201,1.708437
903241295,1.592369
903295106,1.635875
903347290,1.63507
903400864,1.602037
903454839,1.616539
903511763,1.766445
903565410,1.548862
903623856,1.503745
903679748,1.076635
903737274,1.660096
903795302,1.772891
903895138,1.793838
903946972,1.584312
904005394,1.602843
904062930,1.625402
904119396,1.593175
904182223,1.577061
904238196,1.758389
904296602,1.538389
904353344,1.499716
904406946,0.821941
904465395,1.646349
904522430,1.751943
904580933,1.851041
904634695,1.708437
904692112,1.561753
904749876,1.586729
904851127,1.574644
904909959,1.573033
904964859,1.583507
905054872,1.526304
905090929,1.547251
905124160,2.798769
905159571,1.046825
905200270,1.625402
905237143,1.693934
905274721,1.774502
905313581,1.847013
905349249,1.837345
905385765,1.693934
905421309,1.592369
905457343,1.595592
905495810,1.609288
905576148,1.593175
905613524,1.562559
905651917,1.564976
905688937,1.561753
905727333,1.608482
905762968,1.812369
905801433,1.516635
905841540,1.540806
905883246,3.167869
905926673,1.521469
905964187,1.640709
906004208,1.745498
906045128,1.785782
906089981,1.841373
906130636,1.852653
906172614,1.697157
906254144,1.709242
906294136,1.706825
906336593,1.687489
906385334,1.646349
906431990,1.639098
906472174,1.805118
906513925,1.651234
906565531,1.570616
906606505,3.163841
906645303,1.270854
906687828,1.650428
906729936,1.747109
906770397,1.800284
906814191,1.838151
906853636,1.764834
906893069,1.618151
906980788,1.625402
907020158,1.607677
907063258,1.571421
907105095,1.577061
907146741,1.571421
907189592,1.609288
907232233,1.822843
907271234,1.515024
907315441,1.481186
907361323,2.042843
907411638,1.593175
907455103,1.693934
907495929,1.762417
907535817,1.826871
907581851,1.801895
907625733,1.581089
907710061,1.582701
907750636,1.587535
907793266,1.590758
907838125,1.571421
907880627,1.583507
907923305,1.583507
907967543,1.764028
908012661,1.52872
908053474,1.527915
908095974,3.176731
908141305,1.595592
908185131,1.70602
908232393,1.755166
908275213,1.837345
908321093,1.854264
908365214,1.641515
908449553,1.600426
908500144,1.625402
908544408,1.589952
908590900,1.582701
908639364,1.597203
908685062,1.611705
908731308,1.809952
908776553,1.531138
908818187,1.531138
908864586,2.561044
908916168,1.606065
908962153,1.70038
909008279,1.753555
909055142,1.81962
909099138,1.739858
909145758,1.56417
909236077,1.628624
909282009,1.602037
909330873,1.577867
909381380,1.596397
909432492,1.603648
909478543,1.806729
909523046,1.547251
909567275,1.570616
909612866,1.149952
909663391,1.628624
909710789,1.715688
909758607,1.818009
909811510,1.776919
909860492,1.657679
909909606,1.601231
909956379,1.651234
910045954,1.607677
910094815,1.602843
910144289,1.611705
910192351,1.824454
910241124,1.548862
910287803,1.773697
910335664,1.236965
910386595,1.672987
910434998,1.779336
910481867,1.833316
910530349,1.821231
910576211,1.685878
910623510,1.63507
910669753,1.658485
910716178,1.654456
910766623,1.597203
910858422,1.636681
910906396,1.830899
910956017,1.576255
911002988,1.506967
911051024,0.9041702
911098259,1.689906
911148268,1.764028
911197964,1.886541
911250415,1.912323
911302147,1.628624
911349351,1.560142
911400029,1.573033
911447757,1.582701
911499370,1.585924
911552526,1.557725
911606758,1.63507
911698346,1.490854
911750438,2.992181
911801487,1.573838
911851475,1.634264
911901400,1.760806
911951991,1.761611
912000885,1.640709
912050032,1.514218
912096762,1.563365
912145851,1.562559
912195029,1.519858
912248274,1.547251
912299713,1.770474
912353220,1.498105
912406706,2.287063
912459141,1.431183
912556738,1.731801
912611090,1.751138
912659994,1.696352
912714683,1.570616
912768835,1.596397
912821702,1.619762
912881117,1.626207
912932235,1.62943
912987701,1.635875
913040917,1.608482
913090975,3.122751
913144570,1.618151
913199171,1.710048
913251431,1.813175
913303316,1.792227
913357400,1.647155
913452693,1.656873
913504777,1.628624
913558834,1.608482
913611398,1.833316
913662953,1.532749
913717139,2.01545
913769372,1.353033
913822549,1.67057
913879461,1.789004
913934482,1.776919
913989253,1.640709
914044196,1.611705
914099323,1.646349
914154409,1.631847
914206983,1.577867
914260268,1.721328
914359771,1.560948
914415319,3.167063
914468738,1.618151
914524469,1.711659
914575730,1.816397
914632826,1.806729
914684439,1.607677
914740142,1.614928
914797645,1.635875
914856388,1.598814
914915621,1.59398
914971183,1.718105
915030696,1.508579
915089170,1.476351
915150875,1.152369
915208230,1.660902
915309712,1.829288
915364724,1.743081
915423453,1.585924
915484136,1.606065
915549252,1.583507
915612981,1.584312
915670169,1.550474
915732808,1.60526
915800707,1.583507
915857780,1.561753
915949069,1.607677
915986266,1.710048
916024043,1.777725
916065354,1.836539
916103503,1.873651
916141656,1.779336
916226625,1.594786
916262394,1.625402
916300394,1.634264
916337138,1.585924
916374048,1.577061
916411850,1.568199
916450873,1.574644
916487169,1.581089
916527090,1.664124
916568626,1.799478
916615103,1.563365
916656730,1.581089
916696550,1.016965
916733451,1.616539
916778313,1.729384
916818232,1.78417
916900379,1.837345
916937930,1.70602
916974053,1.59962
917015194,1.608482
917053881,1.638292
917094300,1.621373
917134445,1.619762
917175704,1.619762
917214125,1.598814
917250738,1.627819
917292099,1.639904
917331883,1.809952
917372987,1.651234
917411763,1.589952
917453849,1.897015
917493980,1.218434
917575608,1.751943
917623206,1.809952
917663934,1.833316
917707653,1.785782
917753322,1.627013
917794190,1.618151
917836475,1.645544
917876654,1.643932
917913610,1.596397
917957391,1.602843
918002038,1.602843
918044230,1.606065
918088758,1.789004
918132040,1.52872
918171876,1.457015
918214978,1.665736
918299238,1.677015
918342208,1.743886
918388964,1.775308
918434410,1.743886
918483221,1.628624
918527070,1.604454
918570760,1.624596
918613029,1.611705
918654911,1.602843
918700639,1.642321
918742975,1.60526
918786893,1.784976
918836295,1.525498
918883908,1.531943
918929115,1.147535
918970389,1.595592
919059217,1.760806
919101627,1.756777
919144951,1.708437
919187572,1.589952
919231340,1.56981
919277045,1.606871
919321463,1.613317
919368382,1.585118
919411896,1.560142
919456893,1.672181
919501232,1.656873
919546062,1.524692
919589156,1.908295
919634136,1.214406
919677265,1.642321
919722193,1.738247
919809641,1.768862
919854564,1.706825
919899651,1.59962
919944335,1.625402
919989627,1.624596
920032711,1.594786
920079760,1.596397
920126459,1.592369
920172691,1.654456
920218403,1.755972
920263720,1.532749
920311606,1.975972
920356504,1.240238
920405400,1.660902
920454380,1.739052
920505422,1.821231
920590739,1.661707
920636579,1.593175
920682781,1.631041
920729474,1.63507
920774989,1.633458
920820841,1.610094
920867246,1.606871
920913803,1.755972
920956763,1.589952
921002923,1.548862
921047780,3.167063
921097200,1.606065
921143206,1.697157
921192895,1.776114
921241409,1.814786
921290208,1.740664
921384116,1.624596
921432073,1.63507
921477100,1.603648
921525939,1.622179
921574492,1.566587
921622510,1.613317
921677873,1.75436
921724746,1.547251
921776486,2.399052
921824870,1.41507
921869978,1.661707
921919788,1.727773
921969264,1.792227
922018828,1.766445
922065155,1.59962
922115267,1.589952
922209697,1.616539
922256620,1.602037
922307278,1.589952
922353265,1.603648
922402754,1.844596
922453076,1.555308
922502105,1.573838
922551284,1.1709
922602582,1.660902
922655013,1.738247
922707950,1.787393
922759917,1.78417
922809632,1.637487
922860145,1.608482
922909911,1.679432
922961831,1.692323
923056888,1.660096
923108465,1.668153
923158068,1.868817
923207338,1.57545
923256435,2.007393
923308553,1.483603
923356291,1.665736
923406969,1.782559
923460158,1.815592
923513994,1.714076
923570059,1.581089
923619972,1.631847
923674254,1.665736
923729193,1.59962
923785103,1.589146
923837235,1.59962
923935907,1.54564
923987247,1.53436
924041369,1.178151
924096375,1.661707
924156676,1.767251
924215663,1.814786
924268332,1.753555
924323586,1.602037
924389759,1.638292
924444160,1.661707
924499348,1.602037
924554333,1.588341
924607551,1.814786
924664927,1.526304
924717416,1.495688
924770105,0.9001419
924867994,1.755166
924922234,1.832511
924979929,1.794644
925035164,1.589952
925091618,1.627819
925147688,1.650428
925203683,1.608482
925256963,1.606065
925313709,1.573838
925370795,1.84379
925433481,1.544834
925490747,3.165452
925543674,1.590758
925597248,1.681849
925658357,1.780142
925714254,1.761611
925814503,1.560948
925867408,1.593175
925922841,1.592369
925982181,1.56981
926037596,1.598814
926095096,1.712465
926152141,1.517441
926211491,1.818009
926266976,1.401373
926322247,1.704408
926381705,1.841373
926437005,1.832511
926497033,1.690712
926552900,1.666541
926611956,1.660902
926670554,1.606871
926769696,1.579478
926833307,1.743081
926890624,1.552085
926986173,0.9057817
927024062,1.641515
927061379,1.672987
927099991,1.777725
927134291,1.845402
927176239,1.806729
927219269,1.642321
927256011,1.552085
927296894,1.553697
927336054,1.577867
927372339,1.573033
927412538,1.573033
927450180,1.554502
927532686,1.621373
927574284,1.73583
927614630,1.519052
927659114,1.555308
927697581,1.489242
927735812,1.601231
927774079,1.685878
927814687,1.78417
927856740,1.84379
927896417,1.801895
927936668,1.699574
927981935,1.611705
928022402,1.650428
928063423,1.686683
928103285,1.647961
928143890,1.616539
928225602,1.615734
928266325,1.779336
928306333,1.60526
928347152,1.556919
928386101,2.133934
928426566,1.099194
928468344,1.656873
928507917,1.736635
928548173,1.800284
928588816,1.830899
928627519,1.796255
928666751,1.643932
928707416,1.595592
928746832,1.621373
928790030,1.631847
928831161,1.602843
928917271,1.580284
928959592,1.761611
929002620,1.600426
929043290,1.526304
929084977,2.146825
929127715,1.192653
929170435,1.664124
929214632,1.722133
929258039,2.098485
929299536,1.791421
929343474,1.677015
929384483,1.584312
929431896,1.613317
929477327,1.619762
929523839,1.589952
929565324,1.597203
929651510,1.834928
929696349,1.701991
929739233,1.381231
929782590,2.083177
929826270,1.472323
929868346,1.618151
929912332,1.515024
929953296,1.776114
929995370,1.602037
930036134,1.627819
930080126,1.538389
930122407,1.468295
930166353,1.517441
930210883,1.582701
930252063,1.523886
930298638,1.660902
930388693,1.526304
930429715,3.172703
930475317,1.674598
930521334,1.641515
930566208,1.768862
930619240,1.768862
930662882,1.756777
930709426,1.594786
930754539,1.594786
930796643,1.652039
930843517,1.613317
930891356,1.635875
930937786,1.571421
930980004,1.797061
931023515,1.502939
931070123,1.48602
931154718,1.607677
931200722,1.665736
931244532,1.739052
931289855,1.811563
931336001,1.783365
931379224,1.581089
931422727,1.610094
931471155,1.608482
931518182,1.568199
931562859,1.583507
931611974,1.627013
931655781,1.938105
931702326,1.494076
931746070,1.469906
931792646,1.315166
931841675,1.658485
931934371,1.796255
931979108,1.761611
932027209,1.721328
932073533,1.613317
932122810,1.638292
932174687,1.585118
932222594,1.597203
932272083,1.580284
932321963,1.771279
932374669,1.498105
932421084,1.548057
932472954,2.681946
932522342,1.586729
932576724,1.695546
932627716,1.803506
932679864,1.773697
932770594,1.606871
932821604,1.654456
932874668,1.604454
932932738,1.561753
932986566,1.585924
933035351,1.736635
933085597,1.505356
933147572,2.240284
933196705,1.445736
933251155,1.681044
933302318,1.751943
933351453,1.769668
933404691,1.697157
933455830,1.588341
933506950,1.639904
933560194,1.611705
933653992,1.595592
933705670,1.65929
933755763,1.631041
933806679,1.518247
933858868,3.168675
933911015,1.613317
933958419,1.696352
934010505,1.766445
934064160,1.805118
934121938,1.609288
934173763,1.598009
934222857,1.611705
934272399,1.617345
934329361,1.584312
934382305,1.622179
934435041,1.809146
934529036,1.4336
934578858,0.9146441
934634030,1.664124
934684695,1.726162
934736916,1.793838
934789571,1.78417
934842552,1.581895
934892516,1.632653
934944417,1.625402
934998211,1.567393
935048805,1.574644
935106530,1.705214
935159667,1.574644
935216277,1.521469
935269759,1.195876
935319482,1.594786
935422863,1.750332
935475003,1.771279
935534039,1.613317
935588955,1.650428
935642964,1.589146
935697794,1.574644
935748035,1.568199
935805973,1.697963
935866002,1.540806
935919961,1.878485
935975518,1.468295
936034182,1.70602
936086287,1.780142
936142241,1.773697
936195167,1.678627
936251191,1.621373
936353068,1.610094
936412684,1.576255
936474310,1.627013
936531179,1.624596
936586293,1.526304
936642872,1.814786
936699181,1.606065
936757981,1.71891
936814649,1.808341
936871483,1.764028
936933532,1.614122
936993046,1.685072
937051200,1.639098
937107992,1.592369
937165527,1.595592
937221567,1.801089
937324834,3.165452
937381867,1.607677
937440759,1.73019
937497857,1.794644
937556219,1.796255
937616002,1.618151
937673362,1.63507
937730617,1.635875
937787833,1.600426
937843587,1.585924
937929988,1.763223
937967176,1.552085
938005526,1.543223
938042930,1.979194
938080492,0.8880568
938117838,1.622179
938196301,1.780142
938234753,1.806729
938270814,1.82526
938309783,1.705214
938348710,1.60526
938389074,1.615734
938428287,1.616539
938463501,1.598814
938504533,1.561753
938541377,1.556113
938583723,1.564976
938624962,1.570616
938668129,1.597203
938703692,1.774502
938745216,1.606065
938784228,1.542417
938865913,1.04602
938904268,1.654456
938941316,1.692323
938979238,1.761611
939017178,1.792227
939054129,1.800284
939091927,1.723745
939128537,1.592369
939168964,1.622179
939208573,1.616539
939251092,1.613317
939291473,1.614122
939330973,1.596397
939372490,1.595592
939412558,1.594786
939449821,1.606871
939533607,1.558531
939575200,1.558531
939615683,3.171897
939664503,1.590758
939704242,1.652845
939745044,1.709242
939784517,1.78981
939822311,1.780142
939865206,1.735024
939907477,1.616539
939948287,1.621373
939988635,1.636681
940029731,1.563365
940071913,1.612511
940113301,1.627819
940156359,1.589146
940239034,1.689101
940277951,1.803506
940317620,1.542417
940357296,1.469906
940398528,2.002559
940444539,1.62379
940487660,1.718105
940530659,1.769668
940575075,1.81962
940617627,1.801089
940659352,1.645544
940702871,1.624596
940744918,1.627819
940787429,1.618956
940831057,1.608482
940872724,1.585924
940957889,1.615734
940998267,1.777725
941044829,1.556113
941085567,1.536777
941130955,3.176731
941176192,1.570616
941224505,1.682655
941272053,1.756777
941315761,1.805118
941362398,1.772085
941407416,1.619762
941457175,1.627013
941502712,1.627819
941549854,1.606065
941593092,1.611705
941639713,1.602037
941731007,1.751138
941785246,1.53436
941836778,1.800284
941883667,1.166871
941929385,1.67621
941985022,1.741469
942031067,1.806729
942080030,1.788199
942125766,1.638292
942169914,1.632653
942218904,1.630236
942265050,1.619762
942309531,1.627013
942360946,1.589146
942405340,1.593175
942453661,1.85507
942541943,1.489242
942587298,1.324028
942636558,1.631041
942684246,1.710854
942729378,1.776114
942777880,1.787393
942826261,1.703603
942881142,1.576255
942928286,1.652845
942978707,1.634264
943025233,1.585924
943077723,1.60526
943126684,1.595592
943174235,1.779336
943219369,1.521469
943265530,1.757583
943359435,1.641515
943407181,1.70038
943456476,1.774502
943503874,1.744692
943552943,1.654456
943600514,1.606065
943648173,1.653651
943698687,1.593175
943747648,1.539194
943797880,1.590758
943845815,1.57545
943898326,1.813175
943947726,1.521469
943994169,2.004976
944050004,1.537583
944099476,1.67621
944195648,1.797061
944246659,1.781753
944296682,1.603648
944348177,1.622179
944395064,1.635875
944446971,1.57545
944500724,1.581895
944551089,1.602037
944603850,1.805118
944656133,1.551279
944704315,1.506162
944757468,1.145924
944807731,1.626207
944857917,1.719716
944911834,1.764834
944966068,1.776114
945067542,1.583507
945118672,1.640709
945168887,1.601231
945220534,1.583507
945271601,1.577867
945327494,1.615734
945380054,1.766445
945432810,1.549668
945490828,3.167869
945547323,1.59398
945600766,1.703603
945652931,1.781753
945706255,1.753555
945757821,1.655262
945811495,1.609288
945866152,1.631041
945960746,1.607677
946015667,1.631847
946070054,1.736635
946126070,1.532749
946179601,1.660096
946234553,1.270048
946287343,1.678627
946338319,1.744692
946391946,1.790616
946445633,1.692323
946502242,1.607677
946556449,1.653651
946612999,1.650428
946668513,1.602037
946723028,1.590758
946776712,1.867205
946873262,1.725356
946929016,1.298247
946984743,1.657679
947043302,1.781753
947099276,1.743886
947153208,1.658485
947210673,1.604454
947264205,1.606065
947324326,1.59398
947381376,1.573033
947441444,1.797061
947495768,1.567393
947553104,1.448153
947609145,1.05891
947663205,1.644738
947718393,1.740664
947813922,1.755166
947870370,1.582701
947925257,1.610094
947978498,1.602843
948032965,1.587535
948088223,1.544834
948145043,1.744692
948201443,1.519052
948260930,1.438434
948319450,1.215212
948376656,1.645544
948435930,1.799478
948495169,1.749526
948549119,1.672181
948605881,1.610094
948665710,1.62943
948766565,1.568199
948831221,1.635875
948887524,1.581895
948980372,3.165452
949016097,1.207155
949054971,1.549668
949093443,1.647155
949130435,1.764834
949164573,1.712465
949201590,1.721328
949238599,1.660902
949274432,1.587535
949312335,1.606871
949346950,1.634264
949381145,1.656873
949418025,1.628624
949496725,1.668958
949534138,1.894598
949575749,1.548862
949613204,1.606065
949651326,1.751138
949692530,0.8864454
949731699,1.637487
949770447,1.748721
949807778,1.734219
949845697,1.818009
949884659,1.824454
949924974,1.668958
949964500,1.674598
950004262,1.578672
950042184,1.639904
950083264,1.639904
950164151,1.389288
950205219,1.635875
950246259,1.736635
950289070,1.449764
950332665,1.524692
950372051,2.031563
950412056,0.974264
950452841,1.631041
950499409,1.698769
950540407,1.75436
950585222,1.751138
950624158,1.726162
950666678,1.574644
950711261,1.589146
950762056,1.658485
950808333,1.608482
950894361,1.574644
950937933,1.598814
950990854,1.82526
951032953,1.519052
951077481,1.523081
951121462,2.385356
951159356,1.591563
951202715,1.664124
951243243,1.755972
951286582,1.776919
951331951,1.755972
951371806,1.681849
951416260,1.620568
951458537,1.636681
951501512,1.653651
951545739,1.625402
951638232,1.63507
951681842,1.79545
951725894,1.565782
951776140,1.579478
951818886,3.168675
951861956,1.569004
951902682,1.671376
951949561,1.738247
951993538,1.799478
952036768,1.816397
952077505,1.693934
952119370,1.611705
952166459,1.587535
952211457,1.630236
952254300,1.606871
952298926,1.59398
952387162,1.639904
952430348,1.798673
952470734,1.524692
952518319,1.498105
952562836,0.8066331
952611007,1.633458
952654025,1.698769
952701036,1.785782
952747563,1.771279
952790621,1.690712
952842007,1.585118
952885715,1.597203
952933696,1.615734
952981191,1.600426
953028032,1.564976
953075052,1.573033
953161424,1.608482
953207751,1.762417
953259089,1.625402
953305876,1.573033
953356401,3.166258
953403196,1.602843
953445338,1.67621
953491467,1.792227
953534952,1.847013
953582205,1.837345
953630778,1.632653
953679230,1.613317
953730987,1.627013
953777551,1.595592
953824790,1.568199
953870258,1.580284
953960202,1.598814
954012489,1.729384
954060872,1.527915
954109702,1.50455
954162848,0.9428427
954213396,1.631847
954264301,1.71891
954312731,1.79545
954363511,1.808341
954412733,1.646349
954462910,1.612511
954511545,1.632653
954561031,1.640709
954611540,1.59962
954661925,1.603648
954713480,1.614122
954803399,1.73583
954854113,1.580284
954902514,3.098581
954949234,1.427961
954998582,1.685072
955048152,1.76
955098662,1.826066
955149792,1.76
955201921,1.634264
955251218,1.627013
955301526,1.652845
955351139,1.608482
955399824,1.613317
955451478,1.602843
955502966,1.639904
955557166,1.887347
955651929,1.766445
955698921,1.245072
955749596,1.646349
955798811,1.764028
955854305,1.841373
955907864,1.773697
955963383,1.594786
956013374,1.613317
956067547,1.613317
956118456,1.587535
956168201,1.558531
956220034,1.597203
956272250,1.607677
956324267,1.842179
956375039,1.537583
956424104,1.567393
956516668,1.628624
956567228,1.704408
956620916,1.824454
956671262,1.803506
956725891,1.585118
956779251,1.610094
956831234,1.614122
956886433,1.590758
956941744,1.606871
956991797,1.610094
957044909,1.617345
957098031,1.847819
957152937,1.554502
957212783,3.167869
957266704,1.597203
957319157,1.714882
957412669,1.81398
957468057,1.722939
957524534,1.633458
957579707,1.647155
957632211,1.597203
957686843,1.581089
957741975,1.598814
957796247,1.613317
957850561,1.847819
957901776,1.549668
957953786,1.934882
958007483,1.548862
958058210,1.698769
958111070,1.793033
958169240,1.806729
958224643,1.705214
958320447,1.627819
958376225,1.609288
958429527,1.581895
958484800,1.584312
958536254,1.586729
958590950,1.763223
958648191,1.539194
958704262,1.493271
958758895,0.9629847
958816485,1.669764
958870117,1.757583
958929190,1.809146
958981975,1.745498
959039843,1.598814
959098938,1.619762
959158571,1.612511
959262818,1.589952
959318222,1.596397
959374955,1.837345
959432570,1.556113
959494941,2.882559
959550266,1.638292
959609261,1.75436
959664646,1.81398
959723768,1.772891
959786080,1.56981
959852426,1.627819
959950498,1.567393
959987017,1.587535
960037732,1.601231
960074725,1.751943
960114076,1.652039
960194599,1.677015
960230267,1.468295
960270723,1.600426
960307661,1.650428
960344662,1.718105
960384316,1.835733
960419334,1.777725
960457947,1.737441
960494110,1.606871
960532930,1.603648
960572417,1.611705
960613413,1.618151
960653556,1.587535
960696551,1.595592
960741532,1.596397
960780841,1.790616
960859685,1.537583
960896643,1.490854
960940034,1.111279
960978689,1.614928
961018913,1.685878
961058958,1.778531
961097281,1.800284
961134806,1.798673
961177638,1.672181
961215752,1.589146
961255799,1.613317
961296147,1.632653
961338930,1.614122
961377673,1.595592
961415565,1.596397
961457468,1.612511
961538913,1.679432
961580380,1.525498
961618883,1.570616
961661589,0.8775829
961702477,1.615734
961742043,1.681044
961791003,1.743886
961830537,1.78417
961876255,1.740664
961918657,1.597203
961958761,1.587535
961999246,1.592369
962037419,1.602037
962082432,1.580284
962127368,1.566587
962168833,1.562559
962255037,1.792227
962297910,1.523886
962340233,1.543223
962383698,3.166258
962425940,1.59398
962466804,1.672987
962511794,1.755166
962556272,1.826066
962604107,1.829288
962646746,1.650428
962690938,1.592369
962731926,1.622985
962775411,1.631041
962821439,1.627013
962865818,1.612511
962911570,1.595592
963002861,1.67057
963051209,1.531943
963096530,3.021991
963140717,1.382037
963186045,1.66493
963229792,1.741469
963275570,1.797061
963319182,1.812369
963365466,1.672181
963410003,1.598814
963453282,1.622985
963498279,1.634264
963542307,1.608482
963588707,1.59962
963632218,1.607677
963675742,1.743886
963762046,1.560142
963807039,1.837345
963854812,1.261186
963900165,1.65929
963945385,1.747109
963990498,1.826066
964034783,1.816397
964081191,1.689906
964127099,1.604454
964172920,1.627013
964220004,1.635875
964267477,1.600426
964316246,1.596397
964361509,1.614928
964411674,1.620568
964456613,1.846207
964548984,1.550474
964596165,0.9557335
964647352,1.644738
964692893,1.737441
964739771,1.805118
964786889,1.798673
964833105,1.625402
964879900,1.585924
964927290,1.608482
964972902,1.602037
965021319,1.593175
965065497,1.589146
965111988,1.581089
965158758,1.603648
965207483,1.757583
965255366,1.538389
965350822,2.914031
965399508,1.643932
965447007,1.722939
965497830,1.824454
965547497,1.841373
965593259,1.714076
965643505,1.594786
965693962,1.609288
965744378,1.609288
965799891,1.584312
965847835,1.560948
965896215,1.573838
965941456,1.598814
965992682,1.768862
966042585,1.542417
966093178,1.468295
966183457,1.651234
966233803,1.711659
966283591,1.816397
966330925,1.826871
966380335,1.677821
966429188,1.593175
966478604,1.638292
966529018,1.606065
966576372,1.580284
966625781,1.668153
966678520,1.651234
966729832,1.535166
966779970,1.791421
966832118,1.611705
966881934,1.531138
966934270,0.9605676
967024360,1.756777
967072209,1.828483
967125241,1.757583
967177054,1.710854
967229560,1.552891
967281589,1.632653
967330663,1.572227
967383016,1.515024
967431880,1.471517
967482674,1.558531
967536076,1.639904
967592424,1.466683
967647303,1.479574
967699593,1.179762
967754771,1.60526
967808563,1.643932
967908703,1.693129
967962648,1.590758
968019250,1.560948
968070701,1.596397
968124913,1.600426
968182481,1.600426
968244078,1.763223
968299193,1.547251
968356085,1.532749
968423920,1.558531
968478326,1.813175
968534564,1.854264
968590239,1.876068
968643486,1.704408
968701069,1.635875
968755340,1.709242
968852701,1.583507
968907824,1.567393
968960693,1.822037
969017426,1.438434
969071462,1.775308
969126641,1.551279
969181486,1.689101
969239218,1.79545
969297458,1.783365
969357096,1.581089
969419845,1.653651
969475867,1.652039
969532829,1.63507
969588199,1.556919
969648153,1.581089
969703536,1.774502
969799500,1.736635
969856369,1.541611
969910215,1.567393
969963404,1.703603
970023591,1.789004
970079556,1.611705
970135652,1.506967
970192957,1.537583
970252325,1.544028
970305950,1.549668
970359747,1.573033
970418186,1.814786
970475171,1.523081
970534254,3.011518
970590064,1.606871
970647840,1.70602
970749874,1.833316
970805987,1.669764
970870562,1.611705
970907522,1.66493
970948560,1.641515
970985605,1.652845
971024381,1.625402
971063158,1.62943
971098368,1.621373
971138282,1.827677
971179561,1.679432
971217108,1.573033
971255834,1.519052
971294124,2.050094
971332195,1.596397
971373058,1.678627
971450645,1.848624
971488354,1.859954
971529886,1.716493
971571582,1.592369
971616248,1.618956
971654026,1.606065
971692187,1.59962
971730650,1.579478
971768509,1.588341
971810452,1.591563
971850246,1.602843
971891658,1.582701
971936959,1.721328
971979813,1.732607
972022171,1.583507
972062251,1.550474
972144647,1.613317
972183937,1.711659
972224299,1.792227
972264332,1.871234
972306566,1.889764
972346804,1.664124
972386912,1.579478
972429797,1.577061
972471782,1.581089
972512175,1.581895
972553009,1.574644
972591174,1.552085
972632044,1.555308
972671228,1.571421
972715947,1.601231
972758446,1.595592
972842987,1.556919
972883997,1.548057
972925502,3.171897
972968033,1.518247
973009449,1.641515
973052413,1.703603
973094949,1.817203
973138016,1.870428
973183871,1.702797
973223706,1.584312
973268737,1.582701
973309934,1.611705
973354194,1.595592
973398844,1.589952
973445124,1.589146
973486802,1.580284
973571755,1.611705
973615420,1.639904
973658675,1.824454
973700403,1.593175
973742723,1.521469
973786617,1.686683
973829214,1.627819
973870122,1.702797
973912259,1.721328
973952917,1.805923
973998457,1.821231
974042072,1.606065
974089923,1.529526
974135762,1.568199
974180593,1.580284
974227025,1.563365
974313504,1.544834
974354866,1.573033
974398896,1.602037
974443710,1.743886
974489968,1.560142
974541332,1.516635
974585135,1.595592
974629376,1.633458
974672136,1.710854
974716849,1.831705
974765659,1.902655
974811420,1.809952
974855075,1.631847
974901079,1.635875
974945883,1.655262
974989861,1.639904
975076778,1.614122
975121253,1.627013
975166661,1.613317
975211045,1.796255
975256264,1.608482
975300539,1.560948
975350316,3.17512
975395575,1.586729
975440988,1.698769
975487883,1.789004
975532699,1.884124
975578234,1.872845
975623030,1.639098
975667942,1.594786
975717141,1.620568
975766026,1.592369
975854790,1.551279
975902633,1.571421
975948022,1.573033
975997240,1.728579
976041332,1.586729
976092037,1.558531
976139020,3.160618
976191453,1.608482
976244317,1.722939
976292204,1.81962
976342681,1.910712
976393466,1.672181
976448501,1.564976
976499622,1.597203
976554069,1.597203
976601191,1.608482
976692816,1.595592
976747093,1.607677
976805375,1.848624
976854843,1.562559
976905768,1.627819
976969597,1.626207
977021301,1.719716
977074265,1.824454
977123618,1.898627
977171689,1.775308
977224663,1.594786
977275726,1.59962
977324503,1.618151
977378774,1.611705
977427161,1.60526
977478588,1.618956
977569156,1.63507
977621419,1.853458
977673493,1.577061
977724487,2.444976
977775953,1.581089
977830029,1.689101
977886701,1.805118
977939816,1.844596
977990035,1.691517
978038718,1.531138
978093627,1.589952
978145347,1.589146
978195885,1.565782
978247640,1.570616
978297203,1.583507
978347776,1.760806
978444568,1.564976
978497667,2.992181
978550702,1.612511
978603368,1.740664
978660069,1.82526
978710031,1.802701
978759808,1.655262
978815626,1.593175
978868797,1.631847
978922991,1.630236
978973482,1.600426
979026665,1.627013
979079990,1.789004
979130305,1.59962
979183013,1.580284
979240472,1.396539
979334498,1.730996
979389917,1.806729
979444586,1.824454
979497242,1.611705
979552996,1.59398
979611862,1.600426
979666843,1.59398
979723661,1.577867
979778637,1.581895
979832388,1.763223
979889449,1.533555
979942893,1.568199
979995904,1.115308
980054100,1.654456
980112125,1.743886
980173668,1.848624
980271929,1.597203
980327033,1.618151
980380410,1.59962
980436542,1.577867
980494119,1.567393
980549163,1.586729
980606243,1.799478
980667425,1.547251
980727874,1.687489
980785718,1.523886
980841713,1.678627
980901506,1.813175
980959030,1.834928
981017470,1.618151
981074311,1.576255
981131608,1.610094
981232352,1.567393
981290391,1.573033
981348744,1.627819
981406044,1.742275
981464417,1.548862
981521825,2.7464
981574665,1.597203
981631853,1.718105
981689163,1.814786
981749086,1.788199
981841764,1.602037
981878599,1.603648
981914323,1.593175
981951209,1.581089
981988488,1.581895
982027360,1.574644
982106149,1.620568
982145003,1.84943
982183955,1.532749
982218905,1.560142
982258153,3.047773
982294543,1.187819
982336352,1.631847
982377326,1.72455
982419283,1.774502
982456367,1.820426
982496560,1.809952
982535814,1.645544
982574604,1.594786
982613515,1.618151
982652919,1.622985
982692046,1.606065
982772022,1.587535
982808424,1.586729
982848721,1.652039
982886580,1.837345
982927292,1.526304
982964982,1.550474
983007201,3.16948
983048807,1.600426
983088994,1.679432
983129858,1.756777
983173103,1.82526
983211874,1.831705
983252855,1.747915
983292927,1.590758
983334481,1.59398
983382899,1.641515
983466922,1.59398
983507211,1.582701
983546313,1.589952
983587437,1.641515
983631933,1.811563
983672628,1.530332
983710208,1.50455
983751618,3.130002
983794671,1.588341
983833974,1.657679
983875386,1.729384
983913416,1.779336
983954136,1.790616
983992936,1.703603
984030681,1.571421
984069361,1.569004
984154757,1.556919
984196093,1.552085
984238067,1.549668
984283190,1.558531
984323752,1.588341
984365299,1.790616
984404943,1.518247
984446808,1.485214
984490161,2.894695
984533122,1.56417
984572955,1.637487
984616304,1.722133
984656870,1.755972
984702989,1.764028
984745196,1.639904
984788731,1.560142
984874423,1.592369
984922511,1.586729
984967629,1.607677
985010122,1.592369
985054825,1.630236
985100844,1.761611
985148101,1.560142
985192024,1.842985
985238414,1.200709
985280792,1.645544
985325702,1.73583
985374243,1.804312
985428038,1.82526
985473596,1.661707
985520805,1.610899
985581427,1.639098
985668462,1.610899
985714711,1.580284
985761508,1.611705
985805806,1.821231
985854228,1.512607
985898895,1.455404
985942981,2.051705
985990399,1.614122
986034889,1.698769
986082723,1.799478
986127069,1.833316
986173539,1.735024
986218200,1.577867
986265600,1.596397
986313770,1.619762
986364367,1.631041
986459977,1.573033
986507089,1.592369
986553651,1.776114
986599960,1.519858
986651139,1.453793
986697582,1.047631
986744899,1.639098
986793383,1.704408
986838040,1.764028
986883919,1.812369
986936020,1.651234
986982524,1.573033
987030573,1.59398
987079094,1.598814
987129086,1.588341
987176795,1.565782
987263389,1.593175
987315409,1.82526
987363835,1.543223
987413227,1.609288
987461784,1.097583
987511370,1.656068
987560112,1.73583
987606065,1.835733
987655166,1.808341
987708173,1.632653
987758121,1.554502
987808797,1.613317
987859747,1.584312
987907734,1.587535
987959802,1.567393
988014042,1.581089
988105018,1.656873
988158188,1.519858
988209804,3.168675
988258450,1.573033
988311155,1.691517
988359423,1.758389
988409139,1.820426
988463886,1.673793
988516464,1.549668
988573342,1.59398
988626419,1.60526
988676731,1.560142
988725509,1.577867
988776939,1.574644
988830933,1.768057
988881559,1.554502
988976384,3.159812
989032059,1.615734
989088086,1.725356
989142445,1.764834
989194001,1.801089
989246828,1.638292
989298192,1.578672
989351789,1.603648
989404002,1.602037
989456755,1.568199
989510292,1.588341
989563813,1.606065
989619349,1.826871
989672495,1.537583
989725399,2.768959
989778730,1.566587
989870969,1.781753
989924017,1.844596
989974786,1.776919
990029525,1.618956
990085408,1.63507
990138552,1.621373
990192400,1.594786
990245615,1.598814
990300620,1.603648
990355615,1.78981
990410803,1.549668
990467604,1.579478
990523116,1.378009
990574554,1.67621
990630387,1.78417
990683344,1.842179
990783680,1.589146
990841267,1.613317
990901326,1.610094
990953028,1.591563
991010542,1.608482
991067183,1.619762
991120694,1.747915
991176216,1.546445
991231088,1.647155
991285342,1.415876
991341388,1.673793
991393317,1.773697
991447813,1.834122
991499484,1.723745
991555969,1.548862
991609925,1.602037
991711212,1.595592
991769012,1.590758
991826967,1.59962
991885473,1.801895
991943933,1.558531
991997206,2.019478
992053423,1.588341
992111447,1.70038
992169691,1.805118
992230806,1.826066
992286390,1.62379
992341647,1.555308
992395527,1.583507
992455485,1.572227
992514105,1.579478
992572551,1.594786
992666831,1.859954
992724685,1.570616
992784200,3.172703
992872141,1.699574
992907007,1.782559
992943366,1.81962
992980590,1.871234
993014952,1.86076
993051380,1.672987
993091042,1.606065
993130262,1.619762
993167557,1.639098
993207869,1.633458
993242794,1.614122
993280419,1.586729
993315237,1.59398
993394226,1.71891
993434155,1.666541
993473692,1.538389
993511291,1.487631
993548829,2.375688
993586004,1.570616
993625044,1.658485
993660872,1.686683
993700117,1.756777
993739453,1.771279
993783664,1.723745
993826141,1.595592
993863129,1.580284
993903570,1.618151
993943520,1.610094
993988301,1.600426
994070097,1.586729
994112993,1.592369
994150188,1.782559
994191881,1.615734
994235976,1.547251
994285643,3.179149
994327339,1.571421
994368254,1.666541
994421341,1.751943
994465939,1.840568
994507219,1.85507
994550258,1.682655
994590193,1.591563
994634006,1.614928
994674404,1.616539
994714722,1.60526
994803317,1.601231
994844337,1.615734
994887191,1.805923
994929061,1.743886
994969294,1.581089
995013424,1.698769
995056453,0.9299519
995098882,1.638292
995143310,1.745498
995190210,1.841373
995233037,1.873651
995274702,1.799478
995315254,1.613317
995363398,1.586729
995408467,1.620568
995451623,1.609288
995536614,1.577061
995578202,1.577867
995619280,1.60526
995665318,1.774502
995708528,1.54564
995749787,1.473935
995795064,1.072607
995840435,1.598009
995882986,1.677015
995925451,1.778531
995972248,1.830899
996016061,1.764834
996063324,1.584312
996107013,1.606871
996154371,1.606871
996199119,1.584312
996282667,1.595592
996327051,1.598814
996376339,1.815592
996421000,1.548057
996467116,1.535166
996511201,2.245118
996552919,1.594786
996600499,1.674598
996649942,1.793838
996696037,1.826871
996743334,1.741469
996793469,1.590758
996836260,1.584312
996881909,1.613317
996924440,1.593175
996969410,1.593175
997060354,1.727773
997106660,1.640709
997157988,1.531943
997204400,3.188011
997250239,1.608482
997294311,1.66493
997338825,1.738247
997388198,1.850236
997434135,1.807535
997482861,1.565782
997534725,1.560142
997585738,1.566587
997634031,1.567393
997685704,1.571421
997733158,1.59398
997779530,1.742275
997870461,1.558531
997918561,3.171897
997967104,1.606871
998016544,1.711659
998064446,1.764028
998115238,1.828483
998161931,1.730996
998211721,1.56417
998260377,1.556919
998308705,1.592369
998357174,1.584312
998405488,1.593175
998456796,1.618956
998506016,1.667347
998553736,1.511801
998601373,2.492561
998692642,1.63507
998741200,1.718105
998790016,1.797061
998839452,1.768862
998890669,1.616539
998940525,1.577061
998986307,1.627819
999035103,1.596397
999082383,1.595592
999136126,1.606065
999189010,1.886541
999244891,1.491659
999293662,2.262843
999346799,1.543223
999398888,1.657679
999449375,1.776919
999543427,1.743886
999593113,1.581089
999643339,1.564976
999693562,1.607677
999741699,1.574644
999793221,1.577061
999839852,1.555308
999891881,1.745498
999941399,1.496493
999996511,1.499716
1000047623,1.004074
1000100064,1.631041
1000152944,1.749526
1000206006,1.856732
1000253774,1.796255
1000305459,1.552085
1000399753,1.59398
1000453204,1.585924
1000510708,1.603648
1000560702,1.582701
1000611943,1.614122
1000663533,1.806729
1000719287,1.543223
1000773483,2.17019
1000826430,1.556113
1000878194,1.654456
1000932100,1.758389
1000987551,1.840568
1001043803,1.657679
1001095659,1.570616
1001148259,1.59962
1001201795,1.567393
1001293302,1.577061
1001346249,1.577867
1001402497,1.707631
1001457284,1.548057
1001510864,1.531138
1001565578,1.222463
1001619589,1.62943
1001673610,1.762417
1001724074,1.85507
1001775054,1.844596
1001832608,1.616539
1001887161,1.622985
1001940876,1.637487
1001995243,1.612511
1002049604,1.637487
1002106388,1.602843
1002199963,1.638292
1002255876,1.569004
1002311657,2.370854
1002370308,1.674598
1002428197,1.780142
1002483531,1.853458
1002541366,1.763223
1002599319,1.56981
1002660347,1.596397
1002717247,1.585924
1002776718,1.577867
1002830376,1.593175
1002886368,1.594786
1002947190,1.824454
1003011090,1.555308
1003068109,2.939812
1003171003,1.711659
1003241852,1.818814
1003297918,1.783365
1003355872,1.563365
1003415453,1.602037
1003471590,1.594786
1003532072,1.579478
1003620365,1.585924
1003660292,1.686683
1003698634,1.809146
1003736887,1.53436
1003774681,1.542417
1003812373,3.17512
1003849663,1.552085
1003889686,1.643127
1003927476,1.701991
1004013288,1.846207
1004056584,1.740664
1004094847,1.577867
1004132825,1.580284
1004169084,1.606065
1004213061,1.589146
1004251406,1.595592
1004291202,1.581895
1004331893,1.600426
1004369340,1.597203
1004405989,1.729384
1004446930,1.642321
1004486627,1.538389
1004526714,1.742275
1004567490,1.203932
1004608236,1.585924
1004687739,1.715688
1004724120,1.772085
1004767514,1.802701
1004807028,1.681044
1004850210,1.606065
1004888789,1.608482
1004930679,1.618151
1004970647,1.585924
1005009485,1.577061
1005049581,1.581089
1005094620,1.616539
1005135631,1.847819
1005176011,1.520664
1005217745,1.491659
1005257258,3.167063
1005301585,1.558531
1005389057,1.71891
1005429384,1.785782
1005473785,1.809952
1005517776,1.626207
1005557156,1.561753
1005599598,1.57545
1005639645,1.597203
1005680432,1.570616
1005725100,1.547251
1005769828,1.570616
1005816375,1.640709
1005858534,1.801895
1005900529,1.508579
1005941173,1.444124
1005982467,2.178247
1006030348,1.589146
1006116297,1.758389
1006159058,1.809146
1006207228,1.747915
1006252514,1.577867
1006297620,1.571421
1006340818,1.593175
1006385169,1.573838
1006428351,1.571421
1006472229,1.585924
1006516096,1.59962
1006560718,1.813175
1006606025,1.523886
1006649829,1.477963
1006696384,1.986445
1006740738,1.585924
1006784836,1.660902
1006870593,1.822037
1006913421,1.826871
1006957461,1.602843
1007003411,1.568199
1007049431,1.603648
1007095600,1.581895
1007139314,1.573033
1007182074,1.563365
1007226535,1.589146
1007271959,1.837345
1007319697,1.551279
1007366264,1.657679
1007413142,1.109668
1007459934,1.618956
1007501786,1.685878
1007550127,1.747109
1007635208,1.716493
1007685845,1.560142
1007733475,1.606871
1007784167,1.590758
1007829203,1.592369
1007878486,1.595592
1007926401,1.725356
1007972215,1.548862
1008018957,1.562559
1008066282,3.141282
1008113256,1.607677
1008159667,1.661707
1008202773,1.743886
1008251250,1.804312
1008297472,1.776919
1008346869,1.584312
1008434789,1.635875
1008484366,1.597203
1008531869,1.602843
1008580273,1.606871
1008629731,1.78981
1008680115,1.529526
1008725083,1.921991
1008775911,1.460238
1008825397,1.632653
1008874343,1.744692
1008928022,1.781753
1008974693,1.764834
1009022102,1.558531
1009069607,1.576255
1009119024,1.614928
1009169407,1.582701
1009261632,1.570616
1009307622,1.753555
1009357529,1.521469
1009408065,1.445736
1009460197,0.9404257
1009508225,1.597203
1009556043,1.71891
1009605691,1.803506
1009653525,1.821231
1009700659,1.650428
1009755357,1.592369
1009805285,1.600426
1009855757,1.598814
1009908797,1.581895
1009957188,1.59962
1010007986,1.727773
1010097710,1.543223
1010147503,3.154978
1010198980,1.602037
1010247999,1.681044
1010298208,1.812369
1010347247,1.802701
1010397005,1.692323
1010449055,1.583507
1010499264,1.628624
1010552149,1.622179
1010604179,1.568199
1010659008,1.59398
1010715177,1.758389
1010766624,1.529526
1010822999,1.607677
1010875696,1.194264
1010975804,1.781753
1011029945,1.805118
1011087145,1.76
1011138295,1.608482
1011193070,1.657679
1011251227,1.631847
1011312497,1.600426
1011365119,1.587535
1011420022,1.789004
1011487471,1.535166
1011542062,3.176731
1011597877,1.593175
1011653790,1.713271
1011708091,1.778531
1011765026,1.796255
1011818505,1.617345
1011916079,1.616539
1011970100,1.586729
1012026368,1.565782
1012081341,1.577867
1012135155,1.748721
1012191180,1.531943
1012246824,1.93891
1012303649,1.590758
1012363675,1.682655
1012425741,1.79545
1012481704,1.82526
1012538685,1.615734
1012593730,1.588341
1012654695,1.608482
1012711529,1.577867
1012766925,1.547251
1012866469,1.794644
1012920040,1.531138
1012975460,3.16948
1013034691,1.583507
1013089936,1.67057
1013145562,1.779336
1013203561,1.809952
1013262520,1.603648
1013319459,1.622179
1013372868,1.611705
1013433086,1.594786
1013489859,1.57545
1013548716,1.566587
1013604538,1.834928
1013662387,1.541611
1013719431,3.176731
1013817304,1.680238
1013874468,1.79545
1013935789,1.802701
1013993977,1.638292
1014051266,1.650428
1014139652,1.638292
1014179247,1.608482
1014220052,1.620568
1014258015,1.614122
1014297678,1.774502
1014337731,1.722133
1014375316,1.536777
1014416428,1.496493
1014453898,2.275784
1014491299,1.569004
1014533382,1.666541
1014615177,1.826871
1014658286,1.826066
1014697954,1.693934
1014735930,1.59398
1014774098,1.608482
1014811615,1.620568
1014853262,1.610094
1014891904,1.582701
1014930607,1.590758
1014973576,1.584312
1015016105,1.644738
1015056678,1.861565
1015094435,1.536777
1015134516,1.537583
1015173771,3.175926
1015213698,1.581089
1015295792,1.727773
1015335018,1.803506
1015374801,1.842179
1015416131,1.770474
1015458663,1.603648
1015498947,1.602843
1015540474,1.619762
1015580033,1.613317
1015618604,1.612511
1015658931,1.589952
1015699313,1.594786
1015742795,1.592369
1015784666,1.755972
1015824549,1.57545
1015864168,1.539194
1015903100,1.992085
1015984351,1.622179
1016025355,1.702797
1016067904,1.764834
1016110561,1.81398
1016153307,1.78981
1016192082,1.603648
1016236182,1.580284
1016276373,1.606871
1016322525,1.60526
1016366422,1.555308
1016413654,1.568199
1016453223,1.559336
1016498724,1.596397
1016541734,1.76
1016584706,1.521469
1016626873,1.531943
1016711472,1.54564
1016754909,1.654456
1016795894,1.749526
1016835431,1.816397
1016878640,1.847013
1016920953,1.722133
1016965987,1.590758
1017007046,1.609288
1017053499,1.632653
1017097052,1.627819
1017141305,1.606871
1017186426,1.585924
1017233003,1.628624
1017273217,1.805923
1017319856,1.548862
1017366861,1.470712
1017453642,1.580284
1017504388,1.689906
1017548086,1.751138
1017593526,1.773697
1017634328,1.721328
1017680067,1.585118
1017726787,1.583507
1017773448,1.566587
1017815490,1.567393
1017861221,1.543223
1017907384,1.522275
1017954180,1.53436
1017998308,1.737441
1018040414,1.490048
1018083399,1.505356
1018127239,3.185594
1018214333,1.637487
1018263913,1.717299
1018310569,1.788199
1018355814,1.793033
1018402421,1.602843
1018446973,1.556113
1018492228,1.594786
1018537817,1.595592
1018583298,1.552085
1018631590,1.541611
1018678111,1.579478
1018724615,1.687489
1018771403,1.704408
1018817645,1.54564
1018864468,2.44417
1018909260,1.348199
1019000237,1.73019
1019049682,1.780142
1019101802,1.808341
1019152299,1.571421
1019200133,1.577061
1019249476,1.586729
1019298435,1.577061
1019350048,1.537583
1019400106,1.571421
1019452091,1.558531
1019499275,1.76
1019550217,1.51019
1019603967,1.458627
1019661242,1.037963
1019710659,1.612511
1019762108,1.745498
1019868441,1.775308
1019918600,1.588341
1019969333,1.582701
1020021231,1.627819
1020070073,1.590758
1020123238,1.590758
1020170878,1.560948
1020223882,1.611705
1020273923,1.831705
1020326009,1.561753
1020378257,2.538485
1020429136,1.485214
1020481287,1.665736
1020533164,1.755972
1020585986,1.797867
1020637745,1.726162
1020736428,1.601231
1020788274,1.593175
1020839556,1.602037
1020887941,1.57545
1020944845,1.59962
1020996089,1.747109
1021046409,1.548862
1021096702,1.535972
1021147224,2.08076
1021196098,1.608482
1021248672,1.726162
1021301544,1.835733
1021354383,1.845402
1021407031,1.645544
1021463066,1.622179
1021514582,1.636681
1021605697,1.583507
1021662470,1.594786
1021714734,1.608482
1021771103,1.703603
1021823865,1.543223
1021877739,3.173509
1021929663,1.587535
1021981738,1.726967
1022035350,1.78981
1022092760,1.78981
1022147312,1.59962
1022200996,1.579478
1022255352,1.589952
1022310867,1.560948
1022369411,1.572227
1022424232,1.573033
1022525296,1.513413
1022583477,1.444124
1022636392,0.8864454
1022695666,1.602843
1022748384,1.711659
1022803761,1.807535
1022861666,1.697157
1022918531,1.550474
1022978527,1.573033
1023034156,1.548862
1023089117,1.529526
1023142503,1.567393
1023197642,1.737441
1023256429,1.503745
1023312792,1.42071
1023368385,1.012937
1023472518,1.707631
1023533845,1.78981
1023591665,1.697157
1023646368,1.57545
1023704952,1.600426
1023762052,1.611705
1023821353,1.595592
1023876648,1.60526
1023934146,1.740664
1023991053,1.555308
1024049266,2.308817
1024108787,1.580284
1024165839,1.690712
1024222917,1.809952
1024280271,1.797061
1024335696,1.620568
1024436315,1.625402
1024492650,1.610899
1024550337,1.570616
1024642719,1.82526
1024680261,1.52872
1024716951,1.537583
1024754366,2.443365
1024791519,0.9879606
1024830144,1.594786
1024869027,1.685878
1024909330,1.755166
1024946100,1.805118
1024985348,1.792227
1025021731,1.661707
1025064493,1.584312
1025104262,1.602843
1025189267,1.583507
1025224773,1.588341
1025264804,1.577061
1025305192,1.583507
1025341330,1.761611
1025379362,1.630236
1025417701,1.529526
1025456069,1.523886
1025492998,2.063035
1025529422,1.552085
1025568352,1.645544
1025603632,1.71891
1025643258,1.799478
1025682731,1.818009
1025723877,1.760806
1025765445,1.603648
1025846613,1.624596
1025889874,1.610094
1025932173,1.568199
1025969092,1.589952
1026012789,1.587535
1026054276,1.655262
1026096061,1.824454
1026143589,1.531138
1026184528,1.561753
1026223622,1.464266
1026260431,1.587535
1026301642,1.653651
1026345088,1.735024
1026387237,1.790616
1026426787,1.790616
1026468393,1.644738
1026552965,1.589952
1026595851,1.582701
1026633944,1.584312
1026674678,1.581895
1026713545,1.585924
1026752321,1.602037
1026792495,1.785782
1026836256,1.526304
1026878977,1.56417
1026921304,3.174314
1026964121,1.562559
1027005917,1.652039
1027048431,1.729384
1027087400,1.800284
1027129193,1.784976
1027171441,1.677821
1027260329,1.609288
1027302403,1.622985
1027347182,1.611705
1027389119,1.587535
1027434253,1.568199
1027476627,1.600426
1027522961,1.818009
1027567993,1.530332
1027616088,1.814786
