('ECG', 1751568531833119000, [383, 942, 1105, 698, 646, 698, 546, 463, 456, 383, 317, 292, 253, 212, 202, 197, 185, 175, 173, 175, 175, 163, 151, 141, 131, 122, 97, 78, 75, 61, 29, 4, -7, -17, -26, -34, -41, -43, -41, -29, -9, -4, -4, 2, 14, 17, 17, 2, -2, 14, 21, 4, -4, 0, -4, -21, -26, -24, -31, -48, -63, -63, -68, -85, -87, -92, -102, -114, -124, -139, -151, -168, -183])
('ECG', 1751568532394767186, [-195, -207, -217, -219, -227, -241, -251, -261, -280, -305, -322, -336, -346, -361, -388, -412, -422, -427, -437, -461, -488, -495, -512, -551, -583, -612, -644, -659, -671, -710, -773, -844, -727, -231, 363, 473, -351, -1345, -1206, -703, -888, -1064, -930, -942, -1027, -1005, -1005, -1042, -1040, -1042, -1066, -1079, -1079, -1086, -1096, -1105, -1120, -1130, -1137, -1164, -1206, -1230, -1257, -1301, -1337, -1369, -1408, -1457, -1503, -1535, -1572, -1618, -1657])
('ECG', 1751568532956405198, [-1679, -1696, -1713, -1728, -1743, -1767, -1772, -1762, -1767, -1789, -1813, -1818, -1813, -1835, -1857, -1857, -1855, -1870, -1892, -1918, -1928, -1923, -1928, -1931, -1936, -1948, -1958, -1958, -1958, -1962, -1979, -1992, -1989, -1989, -1997, -1997, -2009, -2028, -2021, -2001, -2011, -2023, -2011, -1999, -2001, -2001, -1992, -1987, -1997, -2004, -1994, -1987, -1989, -1992, -1989, -1992, -1989, -1970, -1962, -1972, -1962, -1943, -1943, -1958, -1975, -1989, -1992, -1979, -1982, -2011, -2060, -2023, -1662])
('ECG', 1751568533518033038, [-1030, -620, -1059, -2163, -2500, -1911, -1782, -2043, -1965, -1845, -1911, -1926, -1867, -1845, -1840, -1821, -1796, -1782, -1774, -1745, -1706, -1699, -1701, -1694, -1687, -1679, -1667, -1674, -1704, -1708, -1704, -1728, -1748, -1743, -1757, -1779, -1784, -1794, -1811, -1821, -1818, -1809, -1801, -1794, -1779, -1770, -1760, -1750, -1748, -1740, -1735, -1738, -1718, -1696, -1696, -1691, -1677, -1674, -1687, -1708, -1711, -1672, -1635, -1638, -1657, -1660, -1635, -1599, -1591, -1616, -1621, -1601, -1596])
('ECG', 1751568534079665966, [-1601, -1584, -1569, -1584, -1604, -1577, -1533, -1550, -1591, -1564, -1511, -1503, -1508, -1494, -1491, -1494, -1484, -1459, -1437, -1425, -1413, -1381, -1330, -1335, -1418, -1452, -1403, -1359, -1357, -1359, -1340, -1335, -1401, -1413, -1052, -380, 2, -505, -1618, -1965, -1416, -1230, -1384, -1313, -1276, -1325, -1281, -1242, -1252, -1210, -1179, -1223, -1218, -1152, -1135, -1145, -1123, -1083, -1069, -1093, -1118, -1110, -1098, -1118, -1152, -1166, -1152, -1132, -1152, -1203, -1230, -1218, -1215])
('ECG', 1751568534641319236, [-1240, -1247, -1235, -1237, -1240, -1237, -1223, -1218, -1232, -1223, -1193, -1174, -1157, -1162, -1176, -1164, -1140, -1130, -1115, -1083, -1130, -1203, -1169, -1113, -1125, -1123, -1096, -1093, -1110, -1127, -1127, -1115, -1113, -1098, -1071, -1069, -1069, -1071, -1071, -1057, -1101, -1135, -1074, -1054, -1110, -1105, -1035, -1015, -1057, -1088, -1062, -1030, -1054, -1074, -1008, -954, -998, -1030, -1005, -1032, -1049, -993, -1003, -1110, -1162, -1071, -690, 17, 559, 73, -1301, -1801, -1118])
('ECG', 1751568535202947078, [-866, -1079, -1015, -942, -966, -908, -874, -913, -908, -881, -871, -830, -815, -808, -761, -781, -791, -715, -722, -766, -742, -773, -803, -759, -805, -905, -891, -844, -878, -922, -947, -976, -998, -1005, -1008, -991, -969, -979, -1003, -991, -981, -991, -966, -952, -974, -964, -942, -954, -961, -964, -981, -974, -930, -913, -947, -979, -952, -905, -905, -947, -974, -942, -908, -900, -898, -910, -915, -898, -893, -903, -910, -913, -910])
('ECG', 1751568535764574918, [-905, -886, -859, -852, -869, -878, -854, -839, -866, -871, -832, -817, -842, -864, -864, -854, -844, -832, -837, -895, -976, -891, -429, 273, 673, 12, -1308, -1520, -822, -749, -944, -805, -759, -832, -781, -751, -810, -803, -747, -725, -700, -681, -688, -686, -668, -644, -625, -620, -651, -690, -676, -639, -659, -729, -769, -764, -761, -773, -808, -834, -803, -793, -861, -895, -837, -815, -856, -869, -854, -830, -798, -803, -820])
('ECG', 1751568536326233276, [-808, -803, -822, -830, -815, -805, -822, -830, -820, -822, -830, -825, -822, -817, -808, -803, -800, -795, -791, -786, -783, -793, -805, -812, -805, -783, -769, -769, -778, -791, -815, -825, -788, -739, -717, -720, -720, -698, -686, -720, -764, -773, -761, -754, -754, -776, -856, -864, -461, 305, 793, 261, -1049, -1457, -781, -617, -888, -788, -671, -739, -739, -693, -695, -700, -678, -654, -639, -634, -617, -593, -573, -556, -532])
('ECG', 1751568536887861116, [-510, -544, -598, -607, -603, -634, -668, -671, -671, -705, -759, -788, -803, -832, -854, -844, -847, -864, -866, -864, -866, -866, -854, -822, -795, -803, -810, -800, -786, -778, -781, -781, -759, -732, -700, -698, -710, -695, -695, -690, -661, -681, -705, -678, -678, -698, -673, -659, -683, -681, -649, -637, -646, -644, -649, -712, -808, -830, -786, -754, -754, -778, -812, -874, -869, -488, 263, 844, 444, -947, -1574, -888, -590])
('ECG', 1751568537449519474, [-849, -773, -654, -734, -727, -656, -656, -637, -568, -520, -510, -524, -527, -502, -471, -441, -434, -412, -395, -383, -361, -395, -500, -581, -605, -615, -610, -610, -654, -666, -593, -505, -502, -561, -588, -563, -541, -546, -546, -532, -532, -532, -544, -561, -549, -532, -534, -537, -532, -554, -585, -583, -573, -581, -583, -585, -605, -610, -605, -610, -605, -593, -603, -617, -612, -617, -629, -622, -615, -617, -615, -612, -617])
('ECG', 1751568538011147316, [-634, -639, -634, -639, -649, -637, -622, -644, -681, -695, -708, -717, -727, -759, -812, -893, -876, -471, 234, 671, 156, -1035, -1308, -632, -502, -739, -642, -573, -656, -637, -588, -578, -520, -488, -568, -634, -590, -554, -578, -566, -546, -568, -576, -556, -556, -561, -556, -581, -629, -651, -661, -712, -773, -778, -781, -827, -852, -827, -793, -776, -791, -781, -751, -747, -749, -786, -859, -849, -793, -793, -800, -778, -761])
('ECG', 1751568538572800588, [-761, -769, -769, -769, -761, -751, -749, -747, -754, -766, -764, -749, -747, -754, -749, -727, -705, -710, -725, -725, -715, -710, -710, -710, -720, -717, -686, -661, -666, -666, -656, -666, -695, -710, -708, -698, -688, -686, -722, -805, -812, -473, 214, 810, 556, -727, -1477, -876, -505, -764, -729, -593, -671, -688, -610, -607, -622, -585, -556, -559, -551, -522, -502, -495, -480, -466, -456, -456, -463, -473, -485, -502, -522])
('ECG', 1751568539134433514, [-546, -568, -590, -627, -659, -678, -712, -749, -749, -749, -766, -764, -749, -756, -754, -727, -722, -725, -712, -698, -676, -673, -686, -671, -654, -661, -651, -642, -644, -644, -639, -634, -637, -649, -654, -654, -649, -620, -615, -627, -612, -603, -610, -595, -566, -581, -615, -603, -581, -603, -620, -598, -578, -576, -563, -551, -559, -578, -588, -578, -583, -607, -607, -581, -595, -683, -756, -593, -48, 603, 793, -26, -1098])
('ECG', 1751568539696076614, [-996, -461, -585, -732, -585, -561, -620, -581, -539, -551, -554, -524, -505, -500, -478, -458, -454, -439, -432, -439, -429, -415, -424, -434, -439, -444, -451, -476, -510, -549, -578, -612, -661, -681, -666, -649, -646, -676, -690, -654, -644, -666, -659, -639, -625, -600, -588, -612, -646, -637, -612, -612, -605, -593, -603, -612, -603, -600, -610, -617, -612, -605, -632, -659, -639, -598, -583, -603, -620, -620, -622, -625, -603])
('ECG', 1751568540257719712, [-588, -595, -588, -578, -583, -590, -588, -583, -590, -603, -598, -585, -571, -561, -563, -571, -568, -568, -588, -612, -610, -595, -603, -629, -686, -776, -686, -185, 505, 812, 95, -1088, -1147, -524, -585, -800, -654, -605, -681, -639, -590, -607, -585, -556, -563, -563, -537, -515, -498, -461, -432, -446, -449, -417, -419, -444, -437, -444, -488, -505, -502, -534, -585, -622, -639, -649, -671, -690, -693, -693, -698, -698, -693])
('ECG', 1751568540819352640, [-686, -676, -673, -683, -671, -644, -646, -661, -654, -649, -651, -654, -659, -649, -625, -632, -659, -654, -642, -644, -649, -649, -654, -656, -649, -646, -646, -639, -634, -642, -642, -629, -632, -642, -637, -629, -620, -615, -627, -629, -620, -625, -617, -595, -598, -598, -568, -581, -622, -620, -620, -642, -637, -622, -632, -690, -769, -620, -43, 668, 908, 19, -1228, -1140, -478, -583, -744, -573, -568, -644, -581, -549, -576])
('ECG', 1751568541381005910, [-559, -537, -532, -505, -476, -461, -446, -434, -424, -400, -385, -397, -405, -402, -424, -456, -463, -473, -502, -529, -561, -603, -637, -651, -668, -673, -671, -681, -693, -686, -673, -664, -664, -668, -656, -639, -637, -634, -622, -622, -622, -615, -612, -615, -605, -600, -605, -600, -590, -595, -598, -595, -600, -600, -595, -598, -598, -600, -598, -583, -576, -581, -585, -583, -581, -588, -593, -581, -571, -583, -583, -568, -585])
('ECG', 1751568541942633752, [-593, -571, -573, -585, -566, -551, -549, -537, -527, -537, -549, -563, -576, -571, -563, -571, -595, -656, -695, -432, 241, 905, 849, -302, -1259, -815, -351, -634, -686, -505, -549, -593, -524, -512, -527, -498, -478, -473, -454, -432, -424, -407, -390, -390, -375, -351, -349, -361, -371, -378, -402, -429, -437, -458, -505, -546, -573, -598, -617, -629, -642, -644, -637, -634, -627, -617, -620, -622, -622, -622, -612, -598, -595])
('ECG', 1751568542504292110, [-595, -585, -578, -581, -585, -590, -585, -578, -583, -588, -583, -576, -573, -578, -581, -578, -583, -583, -571, -566, -568, -563, -559, -563, -568, -568, -563, -561, -563, -563, -554, -549, -549, -541, -537, -544, -551, -551, -554, -554, -554, -551, -546, -544, -544, -541, -539, -541, -549, -541, -534, -532, -527, -527, -529, -512, -500, -507, -517, -524, -537, -534, -527, -529, -556, -622, -610, -244, 446, 996, 712, -480, -1108])
('ECG', 1751568543065919950, [-568, -346, -654, -615, -485, -566, -581, -512, -502, -500, -478, -468, -461, -449, -441, -432, -415, -397, -388, -378, -371, -373, -375, -373, -380, -397, -417, -441, -471, -502, -534, -554, -571, -607, -625, -622, -627, -627, -615, -612, -615, -610, -610, -612, -607, -598, -588, -585, -590, -590, -578, -573, -576, -581, -576, -568, -576, -583, -576, -566, -573, -581, -576, -578, -588, -581, -573, -576, -581, -578, -566, -559, -563])
('ECG', 1751568543627578308, [-568, -566, -566, -573, -576, -568, -561, -554, -549, -544, -546, -554, -554, -546, -549, -554, -546, -529, -517, -524, -524, -517, -507, -512, -527, -512, -495, -507, -522, -534, -549, -544, -527, -527, -559, -627, -651, -390, 241, 864, 786, -334, -1215, -759, -327, -612, -644, -471, -541, -590, -517, -507, -520, -488, -473, -476, -458, -444, -437, -410, -388, -388, -380, -363, -366, -378, -390, -402, -415, -427, -449, -478, -507])
('ECG', 1751568544189206148, [-544, -581, -612, -637, -642, -642, -651, -664, -661, -646, -644, -644, -634, -634, -637, -622, -615, -625, -625, -612, -603, -600, -605, -615, -615, -610, -605, -600, -603, -605, -595, -590, -600, -612, -617, -615, -603, -588, -593, -598, -590, -583, -583, -583, -581, -583, -581, -573, -568, -573, -576, -573, -581, -573, -566, -573, -571, -556, -554, -554, -544, -527, -534, -549, -534, -517, -527, -546, -559, -568, -571, -554, -534])
('ECG', 1751568544750833990, [-551, -629, -656, -363, 300, 883, 668, -532, -1284, -715, -332, -610, -603, -456, -522, -537, -473, -480, -488, -456, -437, -429, -412, -397, -390, -385, -380, -361, -341, -341, -346, -346, -349, -373, -400, -402, -415, -461, -502, -520, -544, -578, -593, -600, -620, -622, -605, -605, -617, -612, -600, -590, -590, -593, -588, -585, -578, -568, -573, -578, -576, -576, -581, -578, -576, -581, -576, -571, -566, -563, -561, -556, -559])
('ECG', 1751568545312492348, [-556, -546, -559, -566, -544, -532, -546, -541, -527, -534, -544, -532, -517, -527, -539, -524, -512, -517, -517, -515, -517, -520, -512, -505, -500, -500, -495, -488, -485, -490, -478, -471, -483, -493, -502, -515, -510, -505, -515, -539, -595, -573, -192, 480, 922, 488, -656, -1057, -488, -363, -637, -563, -466, -539, -532, -466, -471, -480, -454, -444, -446, -429, -412, -402, -388, -366, -351, -346, -344, -336, -341, -366, -385])
('ECG', 1751568545874120188, [-388, -407, -437, -454, -478, -520, -539, -554, -593, -607, -593, -603, -617, -600, -578, -585, -583, -571, -576, -581, -568, -563, -571, -571, -563, -559, -556, -559, -566, -566, -561, -566, -568, -559, -554, -551, -554, -559, -561, -551, -549, -546, -546, -551, -554, -544, -539, -544, -546, -546, -544, -537, -520, -515, -532, -537, -527, -529, -532, -524, -517, -515, -510, -500, -502, -515, -500, -485, -502, -522, -529, -532, -534])
('ECG', 1751568546435763288, [-534, -541, -583, -642, -527, -34, 622, 844, 34, -1093, -1005, -375, -480, -654, -480, -463, -563, -520, -466, -490, -488, -449, -429, -419, -407, -393, -378, -363, -358, -358, -354, -339, -329, -339, -354, -368, -393, -424, -449, -473, -505, -537, -561, -571, -585, -615, -637, -629, -615, -605, -605, -598, -581, -581, -583, -571, -566, -573, -571, -563, -559, -556, -556, -566, -566, -554, -556, -568, -568, -563, -561, -559, -549])
('ECG', 1751568546997406386, [-544, -551, -551, -539, -544, -556, -559, -551, -539, -534, -527, -515, -524, -541, -522, -500, -510, -522, -517, -500, -485, -490, -502, -478, -458, -483, -502, -500, -500, -505, -520, -524, -527, -588, -595, -236, 471, 971, 520, -769, -1254, -576, -324, -588, -524, -410, -490, -495, -424, -429, -434, -397, -385, -385, -361, -346, -339, -317, -305, -307, -300, -290, -295, -297, -302, -332, -356, -368, -400, -429, -451, -483, -517])
('ECG', 1751568547559039314, [-544, -568, -571, -576, -590, -593, -581, -578, -573, -559, -554, -561, -549, -537, -554, -561, -537, -524, -541, -549, -529, -515, -539, -549, -532, -527, -532, -529, -529, -532, -534, -527, -512, -512, -520, -527, -527, -517, -507, -507, -515, -520, -512, -498, -498, -512, -507, -495, -498, -498, -483, -473, -473, -476, -463, -451, -456, -471, -483, -495, -493, -490, -498, -532, -598, -515, -17, 688, 969, 183, -1049, -1066, -373])
('ECG', 1751568548120692584, [-400, -603, -458, -417, -493, -466, -427, -434, -424, -402, -393, -375, -366, -354, -324, -314, -314, -295, -273, -280, -302, -305, -295, -312, -351, -373, -393, -424, -454, -483, -512, -522, -534, -559, -573, -571, -556, -554, -561, -554, -537, -532, -532, -532, -532, -534, -532, -532, -534, -532, -522, -522, -524, -520, -515, -517, -520, -522, -517, -505, -502, -510, -512, -515, -517, -510, -502, -500, -498, -495, -495, -495, -493])
('ECG', 1751568548682320426, [-493, -498, -498, -480, -468, -483, -493, -468, -463, -478, -458, -432, -439, -456, -466, -473, -468, -461, -463, -473, -520, -571, -375, 227, 874, 913, -70, -1054, -744, -229, -468, -581, -407, -427, -480, -424, -410, -419, -388, -375, -380, -363, -344, -332, -327, -314, -292, -280, -280, -280, -280, -292, -305, -319, -332, -351, -385, -419, -444, -471, -498, -515, -522, -529, -537, -537, -544, -544, -539, -537, -527, -510, -510])
('ECG', 1751568549243968612, [-520, -512, -500, -498, -500, -500, -498, -495, -495, -493, -490, -493, -490, -488, -498, -505, -498, -490, -490, -490, -488, -485, -485, -485, -488, -488, -488, -480, -468, -473, -483, -476, -471, -478, -478, -468, -466, -461, -444, -446, -451, -434, -439, -468, -485, -485, -476, -466, -471, -495, -544, -549, -251, 385, 893, 637, -437, -1049, -563, -288, -551, -541, -410, -473, -495, -432, -424, -434, -410, -395, -388, -371, -349])
('ECG', 1751568549805606624, [-339, -334, -317, -297, -290, -292, -295, -302, -314, -322, -332, -356, -378, -397, -432, -473, -505, -524, -537, -554, -568, -563, -556, -563, -568, -556, -544, -537, -532, -524, -517, -517, -524, -520, -510, -505, -505, -512, -524, -522, -500, -490, -510, -517, -500, -498, -512, -522, -517, -498, -490, -502, -505, -500, -507, -507, -500, -500, -505, -500, -498, -510, -505, -476, -468, -483, -485, -485, -490, -483, -473, -463, -458])
('ECG', 1751568550367234464, [-468, -468, -444, -446, -468, -473, -488, -505, -488, -473, -495, -554, -593, -390, 185, 791, 783, -222, -1166, -815, -295, -485, -556, -397, -434, -488, -427, -407, -412, -388, -375, -373, -349, -334, -332, -317, -300, -290, -288, -283, -273, -273, -302, -329, -336, -339, -354, -388, -424, -449, -476, -515, -537, -532, -532, -544, -549, -549, -549, -546, -544, -539, -529, -520, -510, -500, -500, -502, -507, -510, -517, -520, -505])
('ECG', 1751568550928867392, [-490, -495, -502, -500, -498, -502, -502, -502, -498, -495, -493, -485, -478, -480, -488, -490, -483, -473, -473, -480, -476, -466, -468, -471, -463, -458, -466, -471, -468, -471, -476, -454, -429, -441, -451, -422, -417, -451, -458, -456, -471, -476, -463, -476, -517, -566, -444, 83, 756, 915, 7, -1115, -944, -307, -407, -544, -393, -393, -461, -407, -371, -388, -373, -354, -351, -336, -319, -305, -285, -275, -275, -268, -258])
('ECG', 1751568551490520662, [-261, -273, -278, -285, -310, -339, -356, -373, -402, -429, -454, -476, -495, -510, -522, -529, -532, -529, -524, -515, -502, -502, -502, -495, -485, -488, -490, -480, -478, -488, -488, -480, -480, -480, -483, -485, -485, -478, -468, -471, -473, -471, -471, -471, -468, -471, -471, -463, -461, -466, -471, -466, -454, -449, -454, -454, -454, -456, -446, -444, -454, -458, -444, -437, -439, -439, -424, -419, -422, -410, -397, -410, -432])
('ECG', 1751568552052143418, [-444, -449, -446, -434, -434, -471, -532, -466, -12, 690, 1052, 427, -754, -930, -310, -312, -559, -424, -361, -451, -429, -378, -385, -378, -356, -349, -339, -324, -314, -297, -278, -275, -273, -256, -244, -251, -258, -266, -285, -310, -322, -336, -371, -405, -432, -456, -483, -500, -500, -498, -510, -520, -515, -498, -490, -498, -495, -488, -483, -478, -473, -473, -473, -466, -463, -473, -473, -466, -468, -468, -468, -466, -466])
('ECG', 1751568552613776344, [-466, -466, -468, -471, -476, -476, -471, -466, -461, -461, -471, -471, -456, -458, -463, -454, -444, -446, -449, -437, -432, -439, -441, -439, -437, -437, -434, -432, -424, -422, -424, -407, -397, -419, -424, -393, -383, -400, -407, -422, -434, -424, -419, -441, -488, -532, -349, 227, 854, 910, -9, -983, -744, -236, -427, -541, -383, -397, -456, -400, -375, -397, -385, -349, -332, -327, -314, -297, -288, -273, -261, -261, -258])
('ECG', 1751568553175404184, [-251, -253, -256, -266, -290, -310, -327, -346, -371, -400, -432, -456, -476, -498, -512, -502, -490, -502, -512, -500, -485, -490, -493, -478, -468, -468, -461, -461, -463, -456, -463, -468, -456, -456, -466, -458, -454, -463, -466, -463, -468, -456, -446, -456, -466, -458, -456, -466, -471, -463, -463, -454, -446, -461, -463, -444, -444, -458, -451, -441, -439, -437, -437, -439, -432, -419, -407, -405, -424, -432, -405, -390, -415])
('ECG', 1751568553737042198, [-427, -434, -449, -451, -441, -439, -495, -554, -324, 290, 866, 754, -341, -1184, -715, -253, -476, -495, -339, -395, -441, -375, -361, -375, -356, -332, -322, -307, -288, -270, -266, -256, -234, -227, -239, -251, -246, -249, -273, -297, -307, -319, -341, -378, -410, -427, -451, -488, -500, -493, -498, -510, -502, -498, -505, -495, -485, -493, -488, -476, -476, -480, -473, -468, -473, -478, -476, -478, -483, -483, -478, -473, -478])
('ECG', 1751568554298690382, [-478, -471, -473, -483, -493, -500, -495, -476, -476, -493, -490, -476, -478, -488, -488, -483, -495, -505, -490, -483, -483, -480, -483, -488, -483, -463, -451, -468, -471, -444, -437, -463, -473, -466, -473, -480, -466, -463, -520, -581, -366, 249, 847, 759, -322, -1220, -773, -253, -463, -507, -341, -373, -400, -334, -319, -317, -288, -270, -263, -253, -231, -209, -202, -200, -197, -185, -168, -170, -195, -209, -229, -256, -278])
('ECG', 1751568554860318222, [-295, -317, -346, -378, -400, -434, -468, -478, -476, -476, -476, -480, -483, -476, -468, -473, -466, -454, -456, -456, -454, -451, -456, -461, -456, -449, -446, -451, -461, -461, -456, -449, -458, -471, -461, -451, -458, -463, -461, -458, -456, -461, -458, -446, -444, -454, -454, -444, -439, -437, -439, -439, -432, -437, -444, -441, -441, -429, -405, -405, -417, -397, -385, -407, -415, -419, -437, -437, -417, -432, -480, -539, -432])
('ECG', 1751568555421940978, [68, 734, 954, 156, -979, -927, -300, -371, -541, -397, -373, -437, -388, -356, -383, -373, -344, -339, -327, -295, -283, -288, -275, -253, -246, -246, -241, -239, -251, -273, -295, -307, -327, -351, -371, -388, -412, -437, -456, -468, -478, -488, -485, -478, -485, -488, -476, -473, -471, -458, -454, -463, -463, -451, -449, -458, -463, -461, -463, -463, -456, -456, -463, -461, -456, -458, -463, -466, -468, -468, -468, -473, -471])
('ECG', 1751568555983573904, [-463, -463, -463, -458, -456, -456, -454, -449, -444, -441, -439, -434, -432, -429, -427, -424, -429, -432, -427, -422, -422, -405, -388, -395, -410, -410, -417, -434, -427, -417, -449, -522, -502, -126, 551, 1030, 649, -534, -1025, -429, -249, -546, -480, -363, -441, -441, -373, -371, -371, -344, -334, -324, -302, -283, -275, -270, -258, -241, -234, -231, -224, -234, -258, -266, -270, -295, -314, -334, -368, -402, -424, -437, -449])
('ECG', 1751568556545217004, [-463, -473, -473, -473, -476, -476, -468, -463, -458, -456, -451, -446, -446, -439, -441, -451, -446, -439, -444, -446, -441, -441, -444, -444, -446, -451, -449, -439, -437, -441, -444, -449, -451, -449, -441, -439, -439, -437, -432, -434, -439, -439, -434, -427, -419, -415, -422, -424, -417, -415, -412, -410, -410, -405, -400, -402, -388, -371, -383, -400, -405, -415, -412, -400, -405, -434, -493, -471, -114, 544, 1005, 612, -537])
('ECG', 1751568557106839758, [-986, -412, -251, -532, -458, -344, -429, -424, -351, -363, -375, -346, -332, -327, -307, -295, -290, -275, -261, -249, -241, -246, -251, -244, -246, -268, -288, -300, -314, -339, -371, -397, -415, -429, -454, -471, -473, -466, -471, -476, -468, -461, -458, -449, -444, -444, -441, -441, -444, -446, -441, -432, -432, -439, -439, -434, -439, -444, -439, -444, -454, -451, -441, -441, -444, -446, -449, -449, -446, -444, -439, -439, -444])
('ECG', 1751568557668487942, [-441, -439, -432, -422, -424, -429, -422, -419, -422, -415, -417, -424, -410, -395, -405, -410, -390, -373, -388, -402, -378, -354, -371, -393, -393, -390, -395, -385, -380, -419, -490, -439, -34, 607, 961, 432, -678, -930, -349, -266, -493, -402, -334, -405, -390, -351, -356, -346, -322, -319, -314, -300, -283, -256, -239, -234, -222, -217, -224, -224, -222, -239, -263, -270, -283, -312, -334, -339, -363, -400, -424, -444, -461])
('ECG', 1751568558230115782, [-471, -471, -461, -461, -471, -468, -456, -456, -449, -437, -441, -444, -444, -451, -449, -437, -444, -456, -454, -444, -434, -437, -451, -454, -451, -454, -449, -449, -456, -446, -437, -437, -439, -449, -456, -454, -446, -437, -427, -432, -449, -444, -434, -446, -446, -417, -410, -429, -422, -407, -419, -424, -395, -363, -380, -410, -412, -405, -417, -422, -412, -432, -502, -505, -173, 480, 939, 493, -693, -1110, -510, -307, -502])
('ECG', 1751568558791738538, [-415, -344, -419, -402, -361, -375, -368, -356, -349, -322, -310, -302, -268, -258, -278, -266, -239, -266, -322, -319, -305, -349, -371, -363, -419, -434, -351, -354, -466, -510, -488, -527, -576, -551, -522, -563, -585, -522, -485, -522, -522, -473, -468, -493, -483, -471, -476, -451, -439, -461, -478, -473, -456, -434, -434, -446, -441, -427, -424, -417, -407, -402, -407, -454, -471, -419, -407, -434, -429, -419, -424, -439, -456])
('ECG', 1751568559353361292, [-454, -446, -444, -434, -424, -410, -415, -427, -419, -432, -476, -476, -449, -495, -507, -415, -419, -551, -556, -212, 417, 856, 390, -803, -1188, -551, -334, -539, -468, -375, -422, -427, -397, -402, -400, -380, -358, -334, -314, -305, -280, -261, -266, -280, -288, -292, -300, -302, -307, -319, -322, -332, -361, -400, -427, -441, -458, -466, -463, -478, -495, -502, -512, -500, -490, -510, -507, -463, -451, -468, -463, -461, -478])
('ECG', 1751568559914999304, [-483, -478, -478, -458, -429, -444, -471, -463, -454, -463, -466, -458, -446, -439, -441, -434, -432, -446, -441, -407, -407, -432, -449, -444, -432, -427, -424, -415, -417, -419, -422, -432, -427, -402, -390, -400, -397, -375, -385, -419, -432, -415, -410, -422, -446, -495, -380, 131, 766, 908, 61, -1000, -849, -249, -363, -502, -344, -339, -407, -363, -339, -361, -329, -285, -292, -288, -251, -251, -270, -239, -195, -205, -222])
('ECG', 1751568560476627144, [-227, -234, -244, -246, -253, -280, -302, -310, -332, -368, -373, -378, -415, -444, -444, -449, -463, -468, -461, -463, -463, -439, -417, -427, -444, -439, -427, -429, -437, -437, -429, -432, -434, -434, -439, -441, -432, -422, -419, -419, -415, -412, -410, -402, -400, -410, -405, -393, -390, -390, -385, -388, -397, -400, -395, -375, -351, -346, -341, -327, -336, -361, -375, -380, -383, -371, -361, -371, -412, -417, -156, 427, 917])
('ECG', 1751568561038254984, [715, -302, -957, -502, -173, -419, -432, -290, -341, -375, -322, -317, -322, -290, -278, -280, -270, -256, -241, -224, -217, -214, -207, -205, -205, -217, -236, -263, -275, -273, -283, -310, -332, -354, -378, -400, -419, -437, -446, -446, -434, -419, -412, -424, -429, -407, -393, -395, -393, -385, -397, -410, -405, -397, -397, -395, -390, -400, -415, -415, -410, -412, -407, -407, -415, -405, -395, -410, -422, -417, -412, -415, -402])
('ECG', 1751568561599882826, [-395, -415, -432, -415, -375, -368, -385, -373, -363, -400, -429, -422, -415, -410, -407, -429, -483, -522, -312, 288, 898, 827, -227, -1088, -729, -292, -456, -480, -349, -378, -407, -366, -351, -354, -332, -314, -307, -292, -283, -280, -268, -253, -234, -224, -234, -253, -266, -270, -275, -285, -312, -344, -351, -349, -368, -390, -407, -424, -437, -437, -439, -444, -444, -439, -439, -444, -437, -417, -412, -422, -422, -422, -432])
('ECG', 1751568562161510666, [-432, -424, -419, -415, -415, -422, -424, -422, -417, -410, -397, -405, -415, -412, -400, -383, -388, -417, -410, -368, -358, -375, -368, -339, -329, -317, -312, -317, -268, -219, -227, -205, -173, -51, 461, 1242, 1511, 563, -607, -424, 205, 117, 9, 146, 153, 129, 187, 197, 163, 173, 195, 197, 195, 197, 209, 222, 197, 166, 156, 122, 70, 43, 14, -46, -100, -119, -144, -190, -239, -280, -312, -346, -395])
('ECG', 1751568562723138506, [-437, -456, -471, -490, -507, -522, -539, -546, -551, -568, -571, -559, -561, -576, -568, -551, -561, -571, -568, -561, -554, -554, -563, -556, -549, -551, -546, -537, -541, -549, -554, -551, -544, -527, -505, -498, -495, -505, -529, -539, -537, -541, -539, -537, -554, -622, -666, -375, 346, 1022, 864, -407, -1279, -737, -324, -598, -590, -429, -490, -515, -456, -463, -466, -419, -407, -412, -393, -380, -378, -363, -351, -354, -349])
('ECG', 1751568563284781606, [-344, -354, -368, -385, -400, -410, -419, -432, -439, -451, -461, -468, -478, -495, -512, -522, -507, -490, -495, -493, -468, -456, -466, -468, -466, -466, -463, -458, -458, -461, -458, -456, -454, -449, -446, -446, -441, -434, -439, -439, -429, -429, -439, -441, -441, -432, -412, -402, -410, -397, -373, -385, -419, -429, -422, -412, -410, -419, -451, -520, -476, -24, 725, 1223, 705, -639, -1047, -378, -275, -559, -444, -351, -444])
('ECG', 1751568563846404360, [-424, -363, -378, -373, -344, -344, -344, -329, -310, -290, -290, -295, -278, -268, -275, -283, -295, -322, -344, -354, -358, -366, -378, -393, -407, -427, -441, -446, -451, -458, -454, -444, -429, -427, -434, -429, -419, -422, -422, -419, -422, -427, -427, -419, -415, -417, -415, -412, -415, -412, -407, -417, -427, -415, -405, -412, -419, -422, -437, -446, -432, -415, -407, -390, -371, -375, -405, -417, -419, -424, -419, -417, -427])
('ECG', 1751568564408027114, [-454, -515, -456, 14, 756, 1176, 520, -793, -1010, -341, -307, -537, -402, -339, -427, -397, -341, -358, -361, -334, -327, -319, -297, -288, -283, -273, -261, -258, -263, -278, -288, -295, -307, -322, -334, -341, -349, -366, -383, -393, -407, -422, -434, -432, -432, -439, -437, -422, -419, -422, -415, -410, -417, -412, -402, -415, -427, -419, -412, -422, -419, -405, -400, -405, -405, -407, -412, -405, -393, -390, -385, -385, -405])
('ECG', 1751568564969649868, [-402, -378, -388, -405, -400, -402, -410, -395, -385, -373, -351, -344, -349, -344, -363, -388, -373, -354, -354, -358, -371, -407, -466, -361, 141, 825, 1064, 258, -866, -815, -251, -358, -510, -358, -346, -407, -361, -341, -363, -341, -314, -310, -307, -297, -302, -310, -275, -219, -231, -307, -332, -280, -251, -290, -334, -329, -334, -375, -361, -310, -329, -402, -434, -419, -402, -397, -407, -397, -383, -393, -390, -371, -375])
('ECG', 1751568565531277708, [-385, -371, -378, -407, -402, -390, -417, -422, -371, -349, -390, -422, -412, -385, -371, -380, -397, -402, -395, -366, -358, -417, -446, -385, -363, -412, -417, -390, -393, -390, -375, -385, -385, -361, -354, -354, -344, -351, -383, -383, -363, -385, -405, -388, -393, -439, -397, -29, 603, 974, 427, -686, -903, -336, -283, -505, -400, -312, -385, -380, -332, -341, -344, -317, -314, -329, -317, -300, -302, -275, -229, -246, -290])
('ECG', 1751568566092905548, [-292, -280, -285, -312, -332, -334, -346, -361, -351, -339, -351, -378, -400, -410, -415, -402, -393, -415, -422, -415, -419, -407, -378, -373, -390, -393, -388, -407, -415, -395, -388, -385, -390, -400, -393, -395, -402, -383, -375, -405, -412, -397, -395, -388, -378, -380, -393, -400, -397, -405, -400, -375, -388, -417, -407, -395, -400, -383, -351, -346, -349, -354, -385, -405, -393, -385, -388, -390, -410, -463, -473, -195, 432])
('ECG', 1751568566654533388, [920, 566, -559, -1069, -534, -251, -427, -390, -305, -354, -351, -302, -297, -310, -288, -256, -258, -263, -239, -219, -224, -219, -209, -217, -231, -222, -219, -253, -288, -312, -327, -319, -295, -290, -322, -361, -395, -410, -400, -393, -400, -395, -380, -383, -383, -388, -397, -388, -380, -400, -415, -405, -390, -393, -402, -395, -393, -405, -407, -400, -397, -402, -407, -402, -402, -417, -422, -415, -405, -402, -410, -412, -405])
('ECG', 1751568567216161228, [-390, -358, -339, -349, -346, -346, -393, -410, -366, -346, -363, -371, -410, -502, -461, -34, 634, 993, 417, -786, -1103, -490, -305, -444, -349, -302, -373, -363, -310, -302, -295, -273, -280, -297, -266, -200, -200, -236, -207, -183, -212, -217, -205, -227, -256, -275, -288, -283, -275, -290, -297, -307, -349, -378, -371, -380, -390, -371, -371, -395, -390, -366, -366, -383, -383, -378, -375, -373, -380, -378, -363, -366, -371])
('ECG', 1751568567777763638, [-366, -373, -385, -385, -385, -383, -368, -380, -393, -363, -346, -366, -380, -373, -361, -346, -324, -319, -324, -317, -334, -373, -375, -351, -349, -363, -378, -424, -485, -361, 153, 810, 1022, 207, -947, -895, -256, -317, -495, -356, -327, -395, -346, -302, -322, -324, -307, -302, -295, -270, -251, -249, -244, -236, -231, -231, -239, -249, -258, -270, -285, -302, -319, -334, -354, -373, -380, -388, -412, -434, -434, -434, -454])
('ECG', 1751568568339386392, [-444, -427, -439, -439, -415, -402, -405, -412, -422, -419, -402, -400, -407, -410, -410, -412, -415, -407, -395, -400, -412, -417, -410, -390, -388, -400, -405, -407, -417, -415, -397, -380, -373, -361, -341, -344, -380, -402, -402, -395, -385, -383, -402, -454, -515, -351, 219, 910, 1049, 43, -1123, -874, -234, -385, -500, -324, -334, -400, -344, -310, -329, -314, -290, -292, -278, -251, -251, -253, -231, -202, -197, -222, -241])
('ECG', 1751568568901014232, [-244, -258, -275, -292, -310, -314, -322, -344, -368, -388, -407, -407, -407, -432, -451, -439, -429, -439, -444, -432, -422, -427, -422, -405, -405, -415, -410, -400, -400, -410, -405, -400, -405, -410, -407, -402, -405, -417, -415, -402, -397, -397, -395, -395, -405, -405, -385, -366, -366, -363, -346, -346, -383, -397, -378, -371, -378, -383, -405, -473, -480, -122, 585, 1145, 771, -578, -1179, -493, -224, -498, -412, -295, -388])
('ECG', 1751568569462662418, [-375, -300, -317, -324, -283, -268, -273, -251, -234, -234, -222, -207, -205, -207, -214, -227, -231, -244, -268, -280, -288, -300, -319, -351, -368, -373, -397, -417, -415, -429, -441, -432, -424, -424, -417, -410, -402, -402, -405, -397, -390, -395, -402, -395, -385, -388, -397, -388, -373, -383, -402, -402, -390, -383, -390, -393, -390, -395, -395, -385, -388, -400, -390, -378, -385, -383, -378, -385, -383, -363, -349, -344, -339])
('ECG', 1751568570024269912, [-327, -329, -351, -368, -366, -366, -368, -371, -395, -473, -488, -151, 539, 1137, 920, -351, -1108, -505, -158, -466, -439, -283, -366, -395, -317, -314, -334, -307, -295, -292, -278, -263, -249, -236, -234, -229, -227, -234, -236, -239, -256, -273, -288, -297, -310, -327, -349, -368, -388, -400, -410, -424, -437, -437, -429, -424, -419, -410, -405, -407, -412, -407, -393, -388, -385, -383, -385, -385, -385, -390, -388, -380, -383])
('ECG', 1751568570585897752, [-393, -395, -385, -385, -397, -390, -366, -371, -388, -383, -375, -383, -390, -380, -368, -373, -375, -368, -368, -368, -361, -356, -356, -356, -356, -356, -346, -349, -358, -363, -361, -356, -356, -354, -349, -344, -336, -332, -341, -341, -317, -305, -324, -332, -312, -310, -329, -339, -341, -346, -341, -336, -363, -434, -461, -183, 483, 1152, 1074, -136, -1042, -549, -148, -458, -483, -319, -383, -412, -334, -329, -351, -329, -305])
('ECG', 1751568571147530680, [-300, -292, -280, -273, -261, -239, -231, -241, -244, -244, -256, -266, -275, -292, -305, -312, -329, -351, -361, -375, -393, -407, -410, -410, -417, -424, -417, -410, -415, -417, -407, -400, -397, -390, -383, -390, -400, -393, -385, -388, -390, -393, -388, -373, -371, -385, -385, -378, -388, -395, -380, -378, -383, -383, -395, -407, -402, -393, -393, -393, -393, -388, -383, -393, -395, -380, -375, -385, -395, -393, -388, -388, -383])
('ECG', 1751568571709153434, [-373, -380, -393, -380, -368, -361, -354, -354, -358, -346, -341, -361, -368, -356, -368, -385, -375, -373, -412, -495, -454, -29, 683, 1169, 664, -651, -1037, -356, -239, -522, -412, -319, -412, -390, -332, -351, -351, -322, -317, -307, -278, -273, -270, -241, -231, -236, -236, -239, -246, -258, -278, -283, -290, -310, -334, -351, -375, -405, -412, -419, -434, -439, -439, -444, -444, -446, -449, -449, -446, -439, -424, -415, -402])
('ECG', 1751568572270781274, [-410, -424, -415, -390, -395, -405, -393, -388, -402, -390, -373, -385, -402, -397, -385, -393, -407, -407, -400, -400, -405, -400, -400, -410, -405, -390, -390, -393, -393, -385, -375, -375, -375, -373, -373, -368, -368, -375, -375, -373, -373, -375, -375, -375, -368, -351, -341, -351, -361, -346, -324, -334, -363, -366, -361, -371, -375, -373, -388, -463, -485, -151, 554, 1147, 874, -417, -1120, -495, -170, -471, -434, -290, -366])
('ECG', 1751568572832409114, [-385, -319, -310, -307, -288, -280, -278, -268, -256, -244, -231, -219, -219, -217, -214, -219, -227, -246, -273, -295, -300, -302, -314, -329, -349, -371, -388, -397, -412, -422, -424, -419, -412, -412, -417, -415, -410, -407, -405, -397, -393, -388, -388, -390, -385, -375, -375, -385, -393, -393, -393, -390, -385, -383, -380, -380, -385, -380, -373, -375, -380, -378, -368, -371, -373, -368, -373, -378, -373, -368, -373, -375, -368])
('ECG', 1751568573394036954, [-356, -346, -349, -354, -358, -356, -354, -358, -356, -346, -349, -356, -349, -339, -344, -344, -329, -332, -344, -332, -322, -341, -358, -363, -375, -380, -371, -383, -449, -502, -275, 361, 1025, 1049, -24, -1042, -678, -168, -417, -493, -319, -363, -422, -366, -366, -373, -327, -312, -324, -312, -292, -280, -266, -256, -249, -239, -249, -261, -261, -270, -300, -317, -324, -336, -349, -373, -395, -407, -427, -446, -451, -461, -471])
('ECG', 1751568573955664794, [-461, -454, -456, -449, -444, -446, -456, -454, -439, -429, -432, -432, -424, -415, -407, -407, -407, -415, -417, -410, -402, -397, -390, -390, -395, -393, -393, -395, -385, -375, -373, -375, -378, -371, -366, -361, -361, -363, -366, -358, -354, -361, -366, -358, -358, -361, -356, -356, -358, -349, -336, -336, -341, -339, -334, -336, -344, -354, -358, -356, -349, -344, -341, -356, -361, -339, -327, -344, -358, -363, -371, -363, -358])
('ECG', 1751568574517292634, [-373, -415, -473, -312, 275, 964, 1110, 190, -905, -727, -168, -349, -493, -327, -327, -395, -346, -314, -324, -314, -300, -285, -258, -249, -253, -244, -227, -219, -217, -214, -212, -217, -241, -261, -261, -275, -297, -312, -339, -371, -383, -380, -390, -415, -417, -412, -419, -422, -407, -402, -410, -410, -402, -395, -380, -373, -375, -375, -371, -361, -356, -371, -373, -354, -349, -358, -356, -351, -363, -368, -358, -358, -361])
('ECG', 1751568575078920474, [-358, -358, -356, -344, -344, -349, -351, -346, -346, -349, -339, -327, -314, -307, -319, -324, -312, -305, -307, -305, -305, -307, -307, -302, -292, -295, -302, -300, -295, -300, -297, -292, -297, -295, -275, -268, -290, -290, -263, -266, -297, -317, -314, -307, -307, -317, -341, -395, -373, -24, 598, 1000, 581, -495, -874, -322, -173, -427, -358, -258, -332, -334, -270, -268, -283, -266, -251, -249, -234, -214, -205, -192, -180])
('ECG', 1751568575640543230, [-178, -180, -178, -185, -202, -212, -217, -236, -256, -266, -278, -305, -336, -366, -383, -393, -400, -412, -410, -402, -407, -415, -412, -405, -402, -400, -402, -397, -385, -385, -383, -373, -368, -378, -388, -388, -385, -390, -393, -383, -378, -388, -390, -388, -390, -388, -380, -371, -354, -356, -375, -368, -358, -368, -371, -358, -346, -346, -358, -358, -339, -346, -363, -358, -356, -366, -356, -339, -346, -349, -346, -356, -346])
('ECG', 1751568576202165984, [-319, -324, -341, -329, -319, -344, -366, -371, -368, -356, -344, -368, -419, -439, -234, 310, 834, 727, -241, -1013, -627, -190, -368, -415, -290, -317, -346, -300, -290, -292, -270, -256, -244, -219, -207, -200, -190, -190, -185, -170, -168, -183, -190, -195, -222, -244, -249, -268, -292, -312, -332, -356, -378, -388, -395, -415, -432, -434, -424, -412, -405, -407, -412, -402, -390, -388, -390, -395, -383, -371, -380, -375, -363])
('ECG', 1751568576763788738, [-378, -385, -363, -356, -373, -366, -354, -361, -363, -363, -356, -349, -358, -361, -354, -354, -354, -351, -351, -346, -344, -351, -346, -349, -361, -349, -336, -341, -341, -341, -339, -336, -341, -334, -317, -314, -324, -310, -292, -314, -346, -354, -354, -351, -341, -346, -388, -429, -283, 236, 842, 874, -75, -1005, -683, -146, -312, -400, -253, -283, -332, -270, -251, -273, -256, -231, -231, -222, -195, -178, -173, -170, -163])
('ECG', 1751568577325411492, [-158, -148, -146, -168, -190, -197, -217, -241, -256, -266, -295, -324, -344, -356, -375, -397, -417, -422, -419, -417, -407, -397, -400, -400, -395, -385, -375, -368, -356, -356, -363, -361, -356, -358, -361, -363, -363, -358, -351, -356, -361, -351, -351, -346, -341, -354, -351, -339, -339, -344, -344, -344, -336, -332, -334, -336, -344, -349, -332, -324, -329, -329, -327, -324, -324, -329, -327, -310, -290, -292, -292, -280, -292])
('ECG', 1751568577887034246, [-319, -336, -339, -327, -322, -344, -390, -434, -266, 275, 854, 859, -26, -895, -627, -148, -314, -407, -263, -283, -339, -290, -261, -266, -246, -224, -224, -222, -214, -197, -178, -173, -168, -161, -156, -161, -178, -190, -202, -219, -234, -239, -251, -268, -295, -324, -339, -358, -383, -397, -397, -388, -380, -385, -390, -388, -390, -390, -383, -380, -378, -375, -378, -375, -366, -368, -371, -368, -371, -373, -373, -371, -373])
('ECG', 1751568578448657000, [-373, -373, -378, -378, -371, -368, -373, -375, -378, -375, -366, -349, -351, -358, -349, -339, -344, -349, -344, -341, -344, -349, -341, -324, -310, -305, -297, -285, -295, -314, -329, -332, -329, -322, -314, -349, -407, -278, 227, 822, 910, 87, -839, -666, -151, -275, -407, -270, -268, -327, -280, -251, -268, -253, -231, -224, -205, -178, -166, -158, -141, -126, -117, -109, -114, -129, -144, -161, -183, -202, -219, -236, -256])
('ECG', 1751568579010284840, [-285, -319, -346, -363, -383, -400, -393, -380, -388, -390, -375, -366, -361, -361, -361, -356, -356, -361, -358, -354, -358, -363, -356, -351, -358, -358, -351, -351, -356, -354, -354, -363, -358, -351, -356, -361, -354, -354, -354, -349, -349, -346, -344, -346, -349, -341, -334, -336, -344, -349, -344, -327, -310, -307, -302, -292, -305, -332, -339, -327, -324, -329, -332, -371, -449, -380, 80, 744, 1042, 400, -734, -874, -266])
('ECG', 1751568579571912680, [-241, -451, -334, -278, -354, -329, -290, -302, -278, -246, -251, -244, -222, -207, -187, -170, -173, -178, -178, -183, -187, -195, -212, -227, -239, -261, -283, -297, -322, -346, -361, -373, -390, -400, -405, -412, -410, -400, -402, -407, -402, -397, -397, -400, -402, -400, -393, -400, -407, -402, -402, -407, -402, -395, -395, -397, -400, -397, -385, -388, -397, -383, -373, -373, -373, -378, -378, -368, -366, -371, -373, -371, -366])
('ECG', 1751568580133540520, [-363, -361, -354, -354, -356, -354, -356, -368, -371, -358, -344, -324, -305, -300, -305, -322, -341, -351, -354, -351, -341, -336, -363, -424, -358, 53, 644, 878, 251, -754, -830, -263, -234, -424, -332, -278, -329, -312, -283, -292, -283, -261, -251, -249, -236, -207, -192, -195, -180, -168, -180, -190, -183, -180, -195, -214, -241, -261, -266, -285, -322, -344, -366, -385, -397, -412, -424, -422, -410, -412, -419, -415, -402])
('ECG', 1751568580695148016, [-397, -393, -385, -383, -397, -405, -383, -363, -375, -390, -385, -380, -385, -388, -378, -373, -380, -385, -383, -385, -380, -371, -368, -375, -375, -373, -373, -373, -375, -385, -380, -354, -344, -354, -344, -329, -312, -307, -346, -366, -351, -351, -354, -346, -366, -424, -410, -61, 593, 1027, 612, -539, -1025, -451, -185, -380, -322, -229, -285, -273, -229, -236, -227, -207, -207, -212, -217, -212, -195, -190, -187, -178, -170])
('ECG', 1751568581256770770, [-178, -178, -178, -217, -256, -251, -256, -280, -300, -319, -344, -356, -368, -397, -419, -415, -410, -412, -417, -424, -417, -393, -385, -385, -380, -388, -405, -410, -402, -395, -393, -400, -410, -402, -390, -397, -410, -405, -390, -380, -388, -395, -397, -400, -393, -393, -410, -395, -383, -393, -363, -332, -366, -397, -385, -375, -371, -349, -332, -344, -349, -346, -344, -358, -393, -405, -395, -388, -390, -451, -466, -148, 480])
('ECG', 1751568581818393524, [903, 588, -380, -876, -429, -195, -429, -415, -295, -356, -385, -324, -300, -290, -283, -285, -270, -246, -241, -236, -214, -197, -187, -178, -178, -183, -197, -212, -214, -236, -268, -275, -288, -322, -344, -356, -375, -385, -395, -407, -410, -407, -407, -388, -380, -390, -385, -375, -385, -378, -354, -346, -361, -375, -368, -358, -363, -385, -373, -346, -385, -410, -339, -302, -346, -366, -354, -354, -358, -341, -319, -336, -366])
('ECG', 1751568582380021364, [-341, -305, -336, -373, -349, -317, -310, -319, -334, -339, -283, -234, -278, -319, -322, -346, -368, -351, -305, -339, -461, -327, 244, 859, 957, 112, -871, -720, -197, -290, -397, -285, -292, -317, -253, -251, -290, -278, -244, -229, -205, -178, -168, -148, -139, -161, -148, -134, -166, -178, -161, -185, -224, -217, -207, -244, -283, -283, -297, -349, -373, -366, -358, -363, -378, -378, -349, -329, -361, -385, -341, -314, -341])
('ECG', 1751568582941639032, [-351, -336, -346, -341, -327, -344, -358, -358, -336, -295, -283, -327, -363, -358, -358, -363, -356, -358, -341, -310, -314, -349, -356, -341, -341, -349, -349, -363, -371, -339, -307, -297, -285, -288, -341, -383, -363, -349, -358, -351, -344, -390, -437, -239, 302, 776, 563, -368, -947, -573, -273, -390, -356, -283, -334, -322, -266, -288, -305, -268, -246, -249, -222, -195, -209, -212, -183, -168, -178, -178, -148, -141, -185])
('ECG', 1751568583503261786, [-217, -222, -246, -266, -263, -273, -292, -336, -388, -405, -412, -429, -405, -349, -371, -434, -412, -351, -346, -363, -371, -371, -375, -385, -361, -339, -346, -349, -351, -361, -363, -361, -356, -349, -349, -356, -361, -363, -366, -356, -356, -363, -366, -366, -361, -346, -334, -327, -327, -319, -317, -344, -366, -366, -358, -358, -363, -380, -439, -400, 12, 690, 1066, 458, -771, -1035, -393, -261, -429, -307, -251, -324, -302])
('ECG', 1751568584064884540, [-266, -275, -258, -227, -224, -222, -205, -192, -183, -158, -139, -146, -148, -134, -134, -151, -168, -185, -205, -224, -241, -258, -280, -312, -351, -383, -388, -390, -412, -419, -407, -402, -407, -405, -400, -397, -388, -368, -366, -375, -363, -349, -356, -368, -366, -354, -351, -356, -363, -368, -375, -383, -385, -378, -368, -363, -358, -368, -378, -366, -349, -341, -334, -324, -334, -356, -363, -358, -358, -363, -363, -385, -466])
('ECG', 1751568584626507294, [-432, 29, 810, 1267, 573, -854, -1123, -378, -270, -456, -288, -236, -332, -290, -244, -258, -229, -187, -183, -170, -156, -148, -134, -117, -109, -107, -104, -112, -124, -131, -141, -161, -185, -205, -229, -251, -275, -305, -339, -361, -373, -380, -390, -402, -397, -383, -373, -368, -361, -354, -354, -361, -358, -354, -356, -351, -344, -344, -336, -332, -332, -332, -332, -339, -341, -339, -341, -344, -344, -336, -324, -322, -322])
('ECG', 1751568585188130048, [-324, -336, -346, -346, -334, -314, -297, -285, -280, -288, -305, -314, -310, -317, -322, -312, -302, -336, -424, -373, 112, 859, 1264, 571, -781, -976, -268, -234, -466, -322, -256, -329, -288, -244, -268, -253, -219, -227, -227, -200, -175, -158, -144, -141, -139, -134, -129, -136, -151, -168, -183, -195, -207, -227, -258, -295, -327, -354, -371, -380, -390, -402, -410, -400, -393, -395, -393, -375, -366, -366, -361, -354, -354])
('ECG', 1751568585749757888, [-354, -346, -339, -341, -341, -336, -332, -334, -339, -336, -332, -324, -324, -329, -332, -332, -324, -324, -327, -329, -329, -332, -329, -317, -319, -336, -341, -322, -302, -288, -283, -288, -290, -297, -310, -322, -319, -314, -322, -332, -366, -439, -341, 178, 903, 1228, 437, -837, -861, -202, -273, -461, -290, -263, -358, -314, -256, -270, -280, -273, -273, -256, -222, -187, -173, -185, -178, -151, -161, -170, -153, -163, -205])
('ECG', 1751568586311385728, [-224, -239, -263, -275, -295, -341, -378, -405, -415, -402, -395, -405, -441, -468, -446, -419, -417, -380, -356, -395, -412, -388, -388, -410, -405, -366, -339, -371, -422, -400, -327, -332, -407, -410, -341, -332, -375, -380, -356, -363, -383, -378, -361, -356, -349, -341, -344, -344, -336, -339, -346, -346, -334, -339, -356, -339, -302, -305, -332, -346, -319, -297, -329, -329, -285, -295, -327, -292, -249, -285, -344, -344, -327])
('ECG', 1751568586873013568, [-322, -317, -327, -371, -446, -354, 156, 886, 1264, 541, -783, -915, -234, -236, -444, -310, -263, -332, -317, -292, -302, -285, -234, -207, -217, -214, -192, -156, -141, -166, -168, -109, -78, -139, -178, -126, -90, -139, -195, -202, -200, -256, -332, -322, -310, -378, -390, -319, -317, -373, -375, -346, -341, -363, -368, -339, -349, -346, -273, -292, -366, -300, -246, -329, -361, -327, -324, -292, -266, -305, -339, -341, -332])
('ECG', 1751568587434621064, [-319, -317, -324, -312, -278, -285, -344, -363, -334, -327, -322, -285, -285, -324, -329, -329, -341, -295, -270, -319, -334, -319, -319, -310, -288, -288, -310, -310, -268, -263, -285, -263, -263, -300, -290, -288, -317, -295, -268, -332, -434, -383, 31, 759, 1320, 786, -656, -1079, -366, -217, -444, -302, -249, -351, -283, -205, -229, -244, -246, -212, -175, -202, -185, -117, -117, -139, -112, -87, -90, -92, -114, -156, -180])
('ECG', 1751568587996238730, [-192, -202, -202, -236, -278, -280, -307, -361, -373, -375, -393, -405, -393, -366, -373, -378, -361, -358, -358, -361, -366, -344, -314, -319, -344, -344, -317, -297, -319, -351, -349, -336, -344, -336, -317, -324, -344, -336, -324, -329, -332, -334, -356, -349, -310, -310, -332, -339, -336, -329, -317, -307, -307, -312, -319, -329, -334, -322, -297, -300, -327, -307, -249, -263, -324, -314, -290, -317, -324, -314, -351, -432, -449])
('ECG', 1751568588557866570, [-126, 625, 1323, 1079, -317, -1149, -517, -122, -407, -371, -209, -278, -302, -263, -283, -231, -139, -158, -197, -163, -144, -148, -134, -114, -107, -97, -87, -90, -97, -92, -114, -166, -178, -161, -190, -249, -278, -288, -312, -332, -344, -354, -361, -354, -339, -336, -341, -334, -334, -329, -327, -334, -310, -283, -307, -322, -292, -290, -319, -329, -317, -302, -297, -305, -312, -302, -297, -302, -310, -314, -314, -310, -307])
('ECG', 1751568589119499498, [-312, -317, -310, -307, -307, -307, -302, -285, -273, -288, -297, -292, -290, -288, -288, -288, -280, -283, -290, -288, -275, -256, -256, -275, -270, -234, -234, -261, -268, -270, -283, -280, -275, -302, -383, -393, -34, 683, 1293, 1059, -222, -983, -415, -97, -402, -371, -214, -292, -319, -256, -258, -266, -231, -217, -214, -200, -180, -166, -146, -126, -122, -124, -119, -122, -126, -131, -141, -161, -180, -195, -224, -266, -295])
('ECG', 1751568589681112080, [-314, -341, -373, -388, -388, -390, -393, -385, -383, -385, -383, -375, -371, -361, -351, -351, -354, -349, -341, -339, -349, -358, -358, -356, -361, -366, -358, -349, -334, -327, -329, -327, -314, -310, -319, -324, -319, -317, -314, -312, -317, -324, -322, -319, -310, -302, -312, -324, -322, -314, -300, -283, -280, -270, -268, -288, -307, -314, -314, -312, -324, -346, -395, -407, -134, 493, 1040, 830, -270, -942, -449, -134, -393])
('ECG', 1751568590242734834, [-390, -256, -305, -319, -268, -268, -270, -236, -219, -219, -195, -158, -141, -134, -119, -104, -97, -104, -97, -90, -92, -95, -112, -141, -163, -192, -249, -300, -332, -356, -371, -380, -393, -397, -393, -388, -385, -378, -378, -385, -385, -371, -356, -363, -363, -344, -341, -356, -358, -349, -349, -358, -354, -339, -341, -344, -341, -346, -349, -339, -339, -351, -349, -339, -344, -354, -354, -339, -322, -322, -317, -310, -305])
('ECG', 1751568590804357588, [-307, -322, -339, -336, -332, -336, -339, -339, -397, -456, -190, 485, 1140, 1083, -100, -1110, -664, -134, -354, -397, -236, -275, -312, -253, -241, -253, -234, -209, -200, -183, -156, -148, -146, -124, -109, -107, -107, -104, -104, -122, -136, -141, -156, -187, -224, -261, -305, -334, -351, -371, -383, -388, -397, -400, -390, -380, -380, -378, -368, -358, -351, -344, -339, -339, -334, -324, -327, -327, -314, -312, -319, -322, -322])
('ECG', 1751568591365975254, [-324, -324, -317, -317, -319, -310, -305, -310, -310, -312, -319, -310, -302, -295, -275, -261, -261, -268, -288, -305, -310, -307, -310, -307, -327, -412, -405, 2, 729, 1271, 859, -517, -1076, -363, -117, -412, -332, -205, -285, -280, -212, -227, -239, -209, -192, -185, -163, -139, -129, -122, -112, -102, -92, -90, -95, -97, -107, -129, -148, -156, -178, -224, -266, -300, -327, -341, -356, -373, -383, -368, -356, -368, -366])
('ECG', 1751568591927603094, [-349, -339, -339, -334, -324, -319, -327, -332, -317, -307, -314, -314, -307, -317, -327, -314, -300, -305, -312, -310, -305, -310, -314, -312, -305, -305, -302, -297, -292, -295, -307, -317, -310, -283, -263, -263, -263, -249, -253, -290, -307, -292, -285, -292, -292, -310, -388, -378, 29, 751, 1267, 834, -466, -954, -312, -139, -412, -317, -217, -307, -300, -241, -253, -253, -222, -205, -202, -197, -168, -141, -146, -144, -122])
('ECG', 1751568592489200418, [-112, -114, -119, -129, -146, -156, -170, -195, -214, -227, -258, -300, -329, -346, -363, -373, -368, -361, -368, -368, -356, -351, -349, -344, -339, -329, -324, -327, -327, -327, -327, -322, -317, -312, -314, -319, -322, -327, -332, -329, -327, -329, -332, -329, -324, -324, -322, -317, -322, -334, -329, -319, -324, -329, -310, -290, -285, -275, -268, -278, -305, -319, -319, -319, -312, -312, -317, -349, -422, -336, 166, 869, 1196])
('ECG', 1751568593050828258, [478, -778, -893, -222, -224, -444, -302, -251, -334, -300, -263, -285, -263, -229, -227, -214, -192, -180, -170, -161, -144, -129, -126, -131, -124, -122, -136, -151, -170, -195, -224, -258, -295, -319, -336, -361, -375, -375, -371, -373, -375, -388, -393, -380, -368, -361, -346, -341, -346, -341, -339, -349, -346, -336, -336, -339, -334, -327, -319, -324, -334, -334, -322, -322, -332, -329, -322, -322, -317, -310, -307, -310, -305])
('ECG', 1751568593612440840, [-305, -305, -280, -253, -258, -261, -261, -288, -305, -295, -288, -283, -273, -290, -351, -419, -302, 234, 971, 1242, 327, -961, -869, -185, -263, -402, -231, -224, -295, -241, -207, -222, -212, -195, -180, -166, -153, -141, -129, -122, -107, -100, -107, -109, -112, -119, -134, -166, -190, -200, -222, -251, -275, -302, -324, -332, -346, -368, -375, -368, -358, -349, -341, -334, -327, -332, -339, -329, -322, -319, -317, -322, -327])
('ECG', 1751568594174053420, [-322, -322, -319, -310, -312, -319, -317, -314, -312, -305, -305, -312, -310, -302, -307, -314, -312, -300, -290, -295, -300, -305, -312, -307, -280, -261, -263, -261, -249, -263, -297, -310, -295, -285, -292, -305, -339, -417, -393, 26, 756, 1232, 671, -683, -1037, -317, -180, -434, -310, -214, -307, -292, -231, -239, -234, -202, -205, -207, -178, -151, -156, -151, -126, -117, -124, -126, -131, -146, -158, -173, -197, -224, -239])
('ECG', 1751568594735655830, [-251, -266, -292, -324, -354, -368, -371, -366, -368, -380, -375, -356, -351, -344, -336, -339, -341, -339, -336, -334, -329, -329, -329, -332, -329, -327, -327, -322, -314, -314, -312, -317, -324, -312, -300, -307, -310, -305, -292, -290, -297, -300, -302, -302, -292, -290, -297, -292, -290, -305, -305, -283, -263, -251, -249, -246, -258, -278, -285, -285, -278, -278, -288, -305, -366, -410, -151, 505, 1149, 1071, -117, -1032, -537])
('ECG', 1751568595297278582, [-87, -356, -368, -200, -258, -290, -227, -231, -239, -207, -197, -190, -168, -161, -158, -139, -124, -119, -114, -114, -119, -124, -144, -170, -183, -190, -207, -227, -256, -290, -312, -324, -339, -354, -363, -356, -341, -349, -351, -327, -317, -329, -319, -305, -317, -329, -319, -312, -314, -314, -307, -310, -314, -312, -307, -300, -300, -317, -319, -300, -297, -310, -302, -288, -292, -302, -305, -307, -307, -302, -292, -288, -292])
('ECG', 1751568595858875906, [-292, -285, -283, -285, -295, -302, -290, -278, -268, -253, -253, -261, -258, -273, -292, -302, -295, -280, -280, -305, -363, -422, -249, 339, 1044, 1218, 229, -939, -710, -112, -295, -422, -244, -253, -324, -266, -231, -253, -236, -212, -212, -209, -192, -180, -170, -148, -131, -122, -124, -136, -151, -158, -170, -183, -195, -212, -234, -258, -288, -307, -324, -344, -358, -361, -358, -363, -363, -363, -363, -363, -354, -334, -329])
('ECG', 1751568596420493574, [-339, -332, -324, -327, -329, -329, -329, -322, -319, -322, -322, -324, -327, -322, -322, -319, -312, -317, -319, -314, -312, -317, -322, -314, -302, -300, -297, -290, -292, -300, -297, -292, -297, -300, -288, -288, -300, -310, -295, -270, -258, -261, -253, -251, -261, -275, -288, -290, -280, -273, -280, -314, -393, -378, 24, 747, 1279, 856, -463, -961, -307, -134, -415, -317, -217, -307, -283, -217, -236, -239, -209, -207, -200])
('ECG', 1751568596982101068, [-170, -163, -161, -144, -131, -134, -124, -109, -117, -134, -144, -161, -185, -197, -200, -222, -261, -290, -302, -310, -324, -341, -349, -341, -344, -351, -346, -341, -341, -327, -319, -317, -312, -310, -307, -302, -297, -295, -300, -310, -307, -297, -297, -295, -288, -292, -300, -297, -302, -300, -295, -300, -305, -305, -302, -297, -292, -290, -292, -295, -288, -280, -285, -290, -292, -290, -275, -263, -270, -278, -275, -283, -290])
('ECG', 1751568597543708564, [-283, -273, -266, -253, -249, -249, -256, -278, -285, -285, -285, -280, -283, -329, -407, -310, 190, 903, 1271, 598, -656, -798, -173, -209, -415, -256, -224, -322, -280, -222, -239, -236, -209, -205, -197, -178, -166, -156, -146, -134, -124, -122, -124, -129, -136, -148, -163, -180, -190, -202, -234, -268, -290, -310, -332, -349, -358, -366, -366, -358, -344, -344, -349, -344, -336, -329, -327, -329, -332, -324, -317, -317, -319])
('ECG', 1751568598105326230, [-322, -317, -317, -324, -324, -324, -327, -322, -314, -312, -314, -317, -322, -324, -312, -310, -312, -302, -295, -310, -312, -302, -297, -305, -312, -300, -288, -295, -302, -292, -288, -302, -307, -300, -300, -288, -266, -266, -266, -268, -290, -305, -297, -292, -295, -302, -317, -368, -419, -190, 429, 1057, 1037, -31, -966, -568, -97, -341, -405, -246, -288, -329, -263, -253, -268, -239, -217, -214, -202, -180, -175, -175, -158])
('ECG', 1751568598666923552, [-141, -136, -126, -122, -122, -134, -161, -185, -200, -209, -231, -261, -278, -300, -327, -341, -356, -373, -371, -363, -375, -383, -366, -349, -354, -351, -336, -332, -336, -334, -332, -336, -329, -322, -324, -324, -324, -329, -329, -324, -329, -334, -329, -324, -327, -322, -317, -322, -317, -312, -317, -319, -319, -322, -319, -312, -307, -307, -307, -302, -297, -307, -317, -305, -295, -305, -305, -283, -268, -268, -268, -266, -278])
('ECG', 1751568599228520876, [-302, -319, -307, -285, -280, -288, -312, -388, -412, -80, 600, 1147, 844, -402, -1044, -441, -139, -390, -332, -205, -283, -288, -222, -231, -241, -217, -205, -195, -180, -168, -161, -151, -139, -129, -126, -124, -124, -139, -161, -175, -180, -202, -229, -246, -268, -307, -336, -351, -368, -373, -371, -371, -368, -368, -373, -371, -356, -349, -339, -339, -351, -351, -327, -310, -322, -334, -327, -322, -322, -327, -329, -329, -324])
('ECG', 1751568599790138544, [-324, -329, -327, -324, -324, -322, -319, -319, -317, -314, -322, -324, -312, -310, -314, -307, -300, -300, -300, -300, -300, -305, -307, -288, -266, -261, -256, -246, -261, -283, -292, -292, -273, -266, -280, -310, -385, -378, 12, 712, 1186, 712, -571, -993, -319, -139, -393, -297, -197, -283, -278, -214, -209, -209, -195, -185, -170, -153, -141, -126, -112, -109, -102, -85, -80, -90, -109, -126, -139, -156, -178, -200, -227])
('ECG', 1751568600351746038, [-261, -292, -322, -332, -336, -354, -363, -361, -361, -358, -346, -341, -341, -332, -319, -317, -314, -312, -312, -307, -300, -302, -305, -305, -307, -305, -302, -300, -300, -305, -307, -307, -297, -292, -300, -297, -300, -302, -307, -317, -314, -295, -285, -297, -297, -285, -288, -295, -290, -288, -292, -297, -300, -285, -270, -256, -241, -234, -241, -249, -251, -261, -268, -270, -270, -273, -295, -356, -361, -43, 610, 1162, 917])
('ECG', 1751568600913353534, [-266, -935, -385, -83, -356, -336, -197, -261, -280, -222, -227, -234, -197, -183, -183, -168, -151, -144, -134, -122, -117, -107, -100, -107, -124, -134, -146, -175, -200, -207, -239, -297, -334, -334, -329, -349, -383, -407, -417, -400, -368, -363, -388, -383, -368, -397, -412, -351, -302, -329, -351, -341, -344, -354, -349, -344, -344, -341, -341, -344, -341, -332, -324, -329, -334, -329, -319, -319, -322, -317, -310, -307, -302])
('ECG', 1751568601474971200, [-297, -292, -292, -288, -285, -283, -283, -280, -273, -273, -280, -280, -278, -283, -285, -283, -273, -258, -244, -244, -239, -239, -275, -297, -275, -263, -268, -261, -283, -358, -388, -109, 532, 1132, 1040, -68, -927, -485, -75, -334, -358, -207, -268, -300, -224, -219, -236, -205, -187, -192, -180, -156, -148, -146, -126, -107, -112, -119, -112, -102, -109, -129, -158, -183, -195, -217, -251, -273, -297, -336, -356, -354, -363])
('ECG', 1751568602036568522, [-375, -375, -366, -366, -361, -341, -334, -341, -339, -336, -336, -324, -322, -324, -322, -317, -310, -314, -324, -324, -319, -319, -322, -319, -312, -317, -327, -317, -310, -317, -319, -307, -300, -305, -314, -314, -307, -302, -307, -307, -297, -292, -297, -302, -302, -297, -292, -290, -295, -302, -310, -305, -280, -261, -261, -258, -246, -249, -261, -275, -283, -278, -273, -278, -285, -319, -380, -263, 244, 878, 1030, 170, -888])
('ECG', 1751568602598165846, [-734, -161, -258, -361, -212, -219, -263, -205, -190, -205, -178, -161, -166, -148, -122, -112, -112, -97, -85, -83, -80, -75, -80, -90, -100, -119, -148, -168, -185, -205, -239, -275, -305, -322, -336, -349, -361, -368, -358, -341, -334, -336, -336, -327, -317, -312, -310, -310, -312, -310, -302, -302, -307, -300, -295, -297, -305, -307, -310, -307, -305, -310, -317, -307, -302, -310, -312, -307, -305, -302, -297, -302, -302])
('ECG', 1751568603159783514, [-292, -292, -297, -292, -292, -300, -297, -290, -290, -292, -292, -295, -305, -310, -307, -300, -290, -288, -283, -266, -244, -236, -236, -229, -222, -244, -270, -270, -261, -266, -266, -266, -312, -366, -185, 380, 986, 1010, 83, -825, -532, -56, -261, -354, -197, -222, -275, -214, -185, -200, -185, -166, -158, -151, -134, -122, -119, -104, -85, -75, -70, -70, -75, -78, -95, -112, -126, -144, -170, -207, -246, -275, -307])
('ECG', 1751568603721391008, [-329, -334, -349, -371, -371, -363, -368, -363, -349, -339, -329, -317, -317, -317, -317, -322, -317, -307, -310, -310, -297, -300, -317, -312, -305, -312, -319, -317, -314, -302, -295, -302, -307, -302, -307, -307, -305, -307, -310, -297, -288, -290, -295, -292, -283, -280, -285, -288, -283, -270, -270, -280, -273, -266, -266, -261, -261, -270, -270, -263, -268, -280, -275, -256, -246, -244, -239, -231, -249, -278, -285, -275, -283])
('ECG', 1751568604282988330, [-295, -297, -314, -366, -314, 107, 764, 1091, 498, -615, -798, -212, -170, -375, -261, -200, -275, -258, -219, -231, -224, -192, -180, -168, -144, -131, -129, -117, -104, -97, -85, -75, -85, -95, -97, -117, -139, -156, -187, -217, -236, -266, -300, -327, -344, -358, -371, -375, -375, -371, -368, -366, -361, -356, -351, -339, -329, -329, -332, -324, -314, -314, -317, -317, -319, -324, -327, -317, -314, -317, -312, -305, -302])
('ECG', 1751568604844590740, [-305, -310, -310, -300, -295, -300, -297, -283, -280, -285, -285, -285, -283, -280, -275, -270, -280, -278, -263, -261, -273, -270, -266, -270, -275, -268, -251, -239, -236, -229, -214, -229, -258, -266, -261, -258, -261, -261, -283, -344, -314, 75, 732, 1115, 603, -556, -859, -227, -100, -344, -253, -170, -249, -239, -190, -197, -192, -166, -153, -146, -134, -117, -107, -97, -87, -73, -68, -70, -75, -83, -87, -100, -117])
('ECG', 1751568605406213492, [-131, -151, -190, -231, -266, -288, -310, -334, -346, -344, -346, -349, -344, -336, -332, -332, -324, -317, -314, -317, -312, -307, -305, -300, -302, -307, -305, -305, -307, -305, -305, -302, -302, -307, -307, -300, -305, -310, -300, -292, -295, -292, -285, -283, -288, -290, -285, -280, -283, -285, -278, -270, -273, -270, -258, -256, -261, -258, -253, -256, -258, -249, -241, -249, -256, -244, -224, -209, -207, -205, -205, -219, -244])
('ECG', 1751568605967810816, [-256, -249, -241, -253, -263, -285, -339, -207, 319, 937, 1054, 239, -754, -620, -90, -229, -371, -224, -222, -285, -239, -209, -222, -202, -180, -183, -178, -158, -136, -122, -112, -102, -90, -80, -80, -85, -87, -100, -114, -126, -146, -178, -214, -244, -270, -302, -327, -339, -351, -363, -361, -349, -341, -344, -344, -329, -312, -310, -312, -310, -310, -310, -302, -295, -292, -290, -285, -288, -295, -295, -290, -292, -300])
('ECG', 1751568606529428484, [-307, -300, -288, -283, -292, -295, -288, -285, -285, -280, -278, -278, -283, -278, -266, -268, -273, -266, -258, -251, -246, -251, -253, -244, -249, -256, -261, -261, -253, -244, -253, -258, -246, -249, -268, -263, -241, -239, -239, -222, -205, -209, -234, -251, -244, -236, -241, -244, -258, -314, -356, -156, 410, 981, 952, -7, -874, -534, -75, -283, -349, -192, -224, -273, -214, -195, -217, -202, -178, -168, -156, -141, -131])
('ECG', 1751568607091035978, [-119, -104, -100, -104, -100, -87, -95, -109, -117, -131, -153, -166, -187, -227, -263, -283, -302, -324, -344, -354, -358, -358, -351, -346, -349, -354, -344, -324, -322, -317, -307, -310, -314, -305, -297, -297, -302, -297, -288, -288, -292, -292, -295, -295, -292, -295, -292, -288, -290, -295, -290, -280, -283, -283, -275, -273, -288, -290, -283, -275, -266, -261, -268, -273, -268, -258, -258, -266, -266, -268, -256, -241, -239])
('ECG', 1751568607652633300, [-227, -205, -205, -236, -261, -263, -256, -256, -253, -268, -329, -339, -24, 620, 1098, 749, -419, -971, -375, -87, -329, -278, -156, -227, -244, -180, -175, -183, -156, -141, -131, -112, -102, -95, -83, -73, -63, -51, -43, -51, -56, -68, -85, -107, -126, -153, -185, -209, -239, -278, -312, -324, -339, -356, -361, -354, -349, -346, -341, -341, -332, -317, -312, -307, -302, -307, -307, -297, -290, -295, -300, -300, -305])
('ECG', 1751568608214235710, [-300, -292, -288, -290, -297, -300, -290, -292, -302, -295, -285, -288, -285, -273, -270, -278, -275, -266, -263, -275, -278, -261, -258, -270, -266, -251, -258, -270, -261, -246, -234, -224, -222, -222, -222, -241, -263, -273, -263, -256, -258, -263, -300, -349, -187, 358, 974, 1020, 92, -856, -585, -68, -244, -346, -197, -212, -266, -217, -200, -207, -183, -168, -168, -153, -131, -119, -104, -95, -92, -83, -70, -73, -83])
('ECG', 1751568608775858462, [-83, -85, -104, -131, -148, -168, -197, -231, -266, -302, -319, -319, -339, -356, -346, -344, -346, -341, -332, -327, -324, -310, -297, -300, -305, -297, -300, -307, -302, -290, -290, -302, -300, -297, -300, -295, -297, -302, -295, -295, -302, -297, -285, -278, -280, -283, -283, -280, -280, -275, -273, -278, -275, -263, -263, -266, -261, -258, -261, -261, -258, -268, -275, -268, -253, -236, -231, -227, -212, -224, -256, -270, -263])
('ECG', 1751568609337450700, [-258, -261, -266, -283, -334, -273, 153, 808, 1123, 493, -646, -791, -178, -163, -385, -249, -180, -270, -256, -205, -219, -209, -175, -166, -158, -144, -131, -119, -114, -104, -80, -65, -75, -75, -73, -87, -117, -134, -146, -175, -209, -236, -266, -292, -327, -361, -366, -361, -373, -383, -375, -363, -354, -349, -354, -351, -341, -336, -332, -322, -317, -322, -327, -319, -310, -312, -314, -310, -314, -319, -310, -305, -310])
('ECG', 1751568609899042936, [-314, -307, -307, -312, -310, -300, -302, -305, -297, -285, -283, -283, -280, -273, -266, -263, -263, -261, -251, -253, -266, -261, -253, -263, -268, -251, -236, -227, -224, -227, -227, -231, -249, -261, -261, -261, -258, -261, -285, -346, -288, 134, 781, 1108, 488, -671, -830, -195, -146, -349, -227, -168, -249, -227, -180, -197, -190, -161, -153, -144, -126, -109, -97, -85, -75, -68, -61, -53, -63, -73, -75, -100, -126])
('ECG', 1751568610460650430, [-136, -158, -200, -231, -253, -280, -310, -324, -341, -346, -332, -327, -334, -334, -329, -317, -307, -305, -302, -302, -305, -297, -285, -285, -292, -292, -285, -290, -295, -297, -300, -290, -280, -283, -285, -283, -283, -278, -275, -278, -273, -266, -268, -268, -263, -256, -258, -258, -253, -253, -251, -251, -251, -241, -231, -234, -236, -234, -236, -241, -236, -231, -234, -239, -244, -234, -214, -202, -202, -202, -202, -214, -234])
('ECG', 1751568611022247752, [-244, -239, -231, -227, -234, -270, -324, -209, 280, 925, 1149, 415, -666, -654, -83, -163, -346, -212, -183, -244, -202, -178, -200, -185, -156, -148, -141, -126, -114, -104, -85, -70, -65, -58, -58, -58, -58, -70, -85, -97, -114, -144, -183, -219, -253, -278, -292, -312, -329, -329, -332, -344, -346, -336, -319, -312, -317, -307, -292, -295, -297, -290, -285, -292, -300, -292, -283, -290, -305, -300, -285, -285, -290])
('ECG', 1751568611583850162, [-288, -290, -295, -288, -283, -290, -290, -288, -288, -278, -278, -288, -295, -285, -273, -263, -268, -280, -280, -273, -268, -263, -258, -251, -244, -249, -263, -270, -256, -227, -217, -222, -214, -207, -231, -256, -253, -246, -249, -251, -258, -307, -346, -144, 422, 993, 976, 24, -876, -568, -87, -278, -354, -197, -227, -280, -222, -197, -212, -195, -175, -168, -151, -129, -114, -95, -87, -87, -78, -65, -58, -56, -75])
('ECG', 1751568612145442398, [-102, -107, -112, -139, -173, -202, -231, -273, -302, -322, -341, -356, -366, -363, -354, -358, -363, -354, -336, -327, -324, -314, -307, -302, -300, -305, -307, -302, -297, -297, -305, -302, -290, -285, -297, -307, -292, -278, -288, -297, -290, -280, -280, -283, -280, -275, -278, -273, -263, -266, -273, -273, -258, -249, -263, -270, -246, -234, -244, -251, -249, -244, -229, -214, -214, -209, -200, -212, -231, -239, -244, -246, -246])
('ECG', 1751568612707039720, [-249, -268, -329, -310, 70, 742, 1149, 632, -561, -903, -270, -107, -332, -249, -168, -239, -224, -166, -178, -185, -153, -136, -126, -107, -95, -90, -75, -56, -48, -43, -43, -39, -41, -56, -70, -85, -117, -144, -173, -214, -253, -283, -314, -329, -329, -336, -351, -356, -346, -336, -341, -339, -324, -319, -319, -312, -302, -297, -295, -297, -300, -297, -295, -297, -300, -290, -290, -305, -302, -290, -292, -297, -292])
('ECG', 1751568613268657388, [-295, -297, -292, -285, -288, -283, -273, -275, -280, -278, -278, -273, -266, -263, -263, -258, -253, -251, -251, -249, -244, -239, -239, -249, -258, -256, -249, -236, -222, -214, -205, -192, -207, -236, -249, -236, -227, -231, -239, -256, -317, -292, 87, 747, 1164, 715, -444, -842, -239, -73, -332, -261, -168, -244, -231, -173, -190, -192, -158, -146, -144, -124, -107, -97, -83, -70, -58, -51, -48, -51, -53, -58, -73])
('ECG', 1751568613830249624, [-95, -117, -141, -173, -207, -241, -273, -292, -310, -327, -324, -329, -336, -332, -327, -322, -314, -317, -317, -312, -302, -292, -292, -297, -295, -285, -288, -292, -292, -285, -288, -285, -285, -288, -292, -295, -288, -275, -275, -280, -280, -280, -278, -270, -268, -273, -275, -268, -263, -261, -261, -261, -258, -258, -253, -246, -246, -244, -234, -229, -236, -241, -244, -239, -227, -212, -200, -190, -178, -180, -207, -234, -236])
('ECG', 1751568614391862204, [-222, -214, -214, -227, -263, -322, -205, 297, 952, 1164, 400, -686, -651, -75, -168, -349, -202, -175, -249, -207, -180, -205, -183, -151, -148, -144, -119, -107, -102, -87, -65, -48, -46, -46, -43, -46, -56, -75, -95, -114, -141, -178, -214, -256, -292, -312, -332, -349, -351, -349, -351, -341, -334, -341, -344, -332, -327, -324, -319, -314, -312, -312, -305, -297, -300, -300, -295, -305, -312, -302, -292, -300, -305])
('ECG', 1751568614953459526, [-302, -302, -305, -300, -300, -300, -297, -292, -292, -292, -285, -280, -283, -285, -273, -268, -270, -266, -266, -270, -266, -261, -263, -261, -246, -231, -229, -227, -217, -227, -256, -270, -266, -261, -266, -263, -270, -332, -363, -95, 527, 1081, 891, -244, -993, -483, -80, -307, -310, -170, -222, -246, -190, -185, -187, -163, -153, -146, -129, -112, -97, -83, -70, -53, -43, -41, -29, -31, -53, -73, -85, -109, -144])
('ECG', 1751568615515056848, [-178, -217, -249, -278, -305, -324, -341, -356, -356, -349, -346, -349, -351, -344, -329, -329, -327, -310, -300, -310, -310, -292, -285, -288, -288, -288, -288, -288, -285, -285, -278, -273, -283, -290, -283, -275, -275, -275, -275, -278, -273, -268, -268, -266, -266, -268, -261, -251, -253, -251, -241, -244, -249, -241, -234, -231, -239, -246, -239, -229, -217, -202, -200, -200, -195, -202, -224, -231, -229, -231, -229, -229, -268])
('ECG', 1751568616076674517, [-332, -229, 263, 925, 1166, 422, -703, -708, -97, -153, -344, -209, -170, -239, -207, -175, -187, -173, -148, -146, -141, -119, -97, -85, -78, -63, -53, -46, -39, -31, -31, -48, -68, -83, -102, -129, -163, -205, -241, -273, -295, -314, -332, -339, -344, -339, -329, -327, -324, -319, -319, -312, -300, -295, -295, -290, -285, -288, -288, -290, -283, -280, -285, -288, -283, -283, -283, -285, -292, -292, -280, -275, -288])
('ECG', 1751568616638241322, [-295, -283, -275, -283, -280, -268, -270, -278, -278, -275, -263, -256, -266, -270, -263, -251, -249, -253, -253, -251, -253, -256, -256, -249, -236, -229, -217, -205, -217, -241, -246, -246, -249, -249, -246, -263, -317, -339, -80, 527, 1079, 947, -90, -871, -449, -43, -288, -339, -197, -236, -275, -224, -212, -217, -195, -175, -170, -161, -136, -119, -109, -100, -80, -63, -61, -63, -65, -68, -78, -92, -117, -144, -175])
('ECG', 1751568617199833558, [-214, -261, -297, -322, -341, -363, -375, -363, -358, -371, -368, -351, -351, -356, -351, -336, -322, -322, -327, -319, -317, -322, -322, -314, -312, -314, -310, -300, -307, -317, -310, -307, -312, -312, -305, -302, -300, -305, -307, -300, -290, -290, -290, -288, -280, -273, -285, -292, -283, -283, -285, -273, -268, -280, -278, -253, -234, -227, -229, -234, -231, -239, -256, -266, -261, -253, -261, -268, -312, -373, -209, 354, 998])
('ECG', 1751568617761425794, [1074, 97, -942, -666, -95, -258, -358, -192, -197, -249, -202, -185, -197, -180, -163, -153, -129, -107, -100, -92, -70, -58, -53, -36, -21, -31, -48, -56, -73, -100, -119, -151, -195, -236, -263, -290, -319, -341, -351, -356, -356, -351, -351, -346, -332, -327, -332, -322, -300, -292, -302, -305, -295, -292, -290, -290, -295, -300, -290, -280, -285, -292, -292, -283, -278, -285, -290, -283, -275, -278, -283, -283, -278])
('ECG', 1751568618323018030, [-273, -268, -266, -266, -270, -261, -251, -253, -261, -253, -249, -251, -251, -246, -249, -258, -256, -234, -224, -244, -246, -227, -212, -209, -202, -197, -212, -239, -249, -236, -227, -231, -241, -256, -310, -319, -31, 593, 1123, 888, -241, -913, -380, -51, -312, -302, -170, -236, -253, -192, -195, -200, -170, -158, -151, -129, -117, -109, -90, -75, -68, -61, -53, -41, -43, -63, -75, -78, -92, -122, -153, -187, -229])
('ECG', 1751568618884640782, [-273, -305, -324, -339, -351, -354, -346, -339, -334, -327, -319, -317, -314, -307, -297, -302, -302, -295, -290, -290, -295, -292, -285, -283, -283, -280, -278, -283, -292, -292, -283, -275, -283, -285, -278, -273, -273, -273, -263, -268, -275, -268, -261, -263, -263, -256, -253, -256, -256, -251, -241, -241, -244, -244, -244, -244, -244, -244, -239, -231, -241, -253, -246, -231, -227, -219, -212, -205, -205, -231, -251, -246, -236])
('ECG', 1751568619446207588, [-229, -227, -236, -288, -332, -131, 463, 1093, 1108, 136, -791, -495, -29, -246, -336, -180, -207, -258, -205, -190, -207, -180, -156, -156, -144, -122, -112, -100, -85, -80, -73, -56, -46, -51, -56, -61, -80, -102, -114, -144, -190, -229, -258, -292, -322, -329, -329, -334, -346, -349, -339, -332, -332, -329, -324, -322, -319, -312, -307, -310, -310, -314, -312, -297, -283, -295, -302, -288, -285, -295, -297, -297, -300])
('ECG', 1751568620007804910, [-302, -295, -283, -283, -285, -285, -292, -295, -285, -278, -275, -268, -263, -266, -266, -263, -263, -268, -268, -253, -256, -261, -256, -258, -261, -256, -263, -258, -231, -217, -222, -222, -227, -246, -261, -261, -258, -256, -263, -283, -336, -349, -95, 507, 1066, 939, -129, -935, -490, -68, -310, -351, -200, -239, -278, -219, -205, -214, -190, -168, -163, -151, -131, -119, -107, -85, -75, -73, -58, -56, -65, -73, -80])
('ECG', 1751568620569402232, [-92, -117, -151, -183, -212, -244, -292, -329, -344, -368, -378, -363, -363, -378, -371, -356, -356, -358, -358, -349, -332, -317, -314, -317, -314, -312, -312, -322, -317, -302, -307, -314, -305, -302, -314, -319, -314, -300, -295, -300, -292, -292, -302, -297, -295, -305, -297, -285, -283, -275, -266, -268, -273, -270, -273, -268, -253, -239, -236, -246, -231, -212, -229, -258, -266, -258, -253, -246, -256, -305, -366, -222, 322])
('ECG', 1751568621130979210, [979, 1110, 183, -925, -729, -107, -222, -334, -166, -173, -239, -187, -163, -183, -158, -126, -126, -119, -92, -83, -80, -65, -51, -34, -19, -21, -26, -29, -46, -65, -80, -102, -141, -192, -229, -258, -288, -305, -327, -346, -356, -356, -356, -356, -346, -329, -329, -334, -319, -300, -297, -307, -307, -295, -288, -292, -297, -292, -292, -305, -310, -295, -285, -288, -297, -297, -290, -285, -283, -278, -275, -275, -275])
('ECG', 1751568621692571446, [-270, -261, -258, -263, -266, -256, -251, -256, -253, -244, -239, -241, -241, -249, -246, -229, -217, -217, -212, -202, -200, -219, -241, -249, -239, -234, -234, -236, -275, -336, -183, 368, 1010, 1123, 214, -837, -627, -48, -209, -344, -178, -180, -253, -202, -175, -195, -170, -144, -144, -131, -107, -95, -87, -70, -58, -43, -36, -39, -41, -43, -53, -68, -90, -107, -136, -178, -217, -249, -275, -302, -332, -339, -329])
('ECG', 1751568622254194198, [-336, -346, -336, -327, -327, -322, -312, -302, -297, -295, -292, -290, -290, -288, -290, -288, -283, -283, -285, -283, -275, -280, -285, -280, -275, -270, -278, -283, -283, -278, -273, -273, -270, -263, -256, -251, -249, -249, -249, -251, -249, -239, -234, -244, -244, -229, -236, -251, -249, -231, -219, -212, -205, -195, -200, -214, -227, -234, -236, -229, -227, -234, -273, -334, -212, 302, 954, 1154, 380, -695, -642, -70, -173])
('ECG', 1751568622815761004, [-349, -205, -185, -249, -205, -180, -200, -173, -139, -141, -136, -114, -104, -95, -80, -63, -53, -51, -43, -36, -43, -53, -58, -80, -107, -134, -168, -209, -249, -285, -307, -319, -336, -339, -334, -339, -344, -334, -332, -332, -324, -314, -312, -314, -312, -302, -290, -283, -290, -295, -292, -292, -295, -297, -295, -292, -290, -285, -292, -297, -280, -275, -285, -292, -290, -285, -283, -290, -285, -273, -278, -283, -273])
('ECG', 1751568623377378672, [-261, -261, -256, -256, -258, -249, -241, -256, -261, -253, -253, -256, -246, -234, -227, -219, -212, -205, -205, -212, -229, -246, -249, -239, -231, -234, -270, -336, -268, 168, 825, 1174, 581, -615, -842, -200, -124, -346, -229, -156, -241, -231, -178, -183, -178, -158, -151, -136, -112, -109, -104, -80, -58, -53, -48, -41, -41, -56, -70, -90, -104, -117, -144, -185, -224, -256, -285, -314, -339, -349, -349, -351, -361])
('ECG', 1751568623938970908, [-361, -351, -346, -349, -339, -329, -327, -319, -307, -312, -317, -300, -283, -290, -300, -297, -300, -307, -300, -288, -290, -290, -283, -285, -292, -295, -288, -285, -292, -290, -283, -283, -280, -278, -275, -278, -270, -266, -273, -275, -263, -261, -270, -266, -249, -236, -229, -229, -227, -227, -244, -256, -249, -246, -253, -253, -258, -317, -322, 21, 703, 1186, 766, -456, -954, -324, -73, -327, -263, -146, -217, -227, -170])
('ECG', 1751568624500552970, [-166, -170, -148, -136, -124, -102, -90, -85, -65, -48, -36, -26, -19, -19, -31, -48, -58, -68, -85, -114, -153, -192, -227, -258, -285, -302, -317, -336, -341, -332, -329, -324, -314, -310, -307, -297, -292, -288, -283, -283, -275, -268, -273, -278, -278, -275, -273, -266, -266, -268, -270, -266, -261, -263, -263, -256, -251, -258, -266, -261, -253, -258, -263, -251, -239, -244, -251, -241, -236, -236, -239, -239, -234])
('ECG', 1751568625062150292, [-229, -227, -231, -229, -224, -229, -236, -224, -212, -209, -200, -185, -183, -178, -183, -207, -224, -219, -209, -202, -200, -229, -295, -270, 97, 761, 1225, 830, -349, -812, -217, -36, -319, -263, -148, -214, -219, -173, -175, -170, -139, -131, -134, -112, -92, -85, -75, -56, -46, -39, -31, -31, -36, -41, -53, -70, -87, -107, -139, -180, -224, -256, -278, -297, -312, -319, -319, -324, -327, -319, -312, -310, -307])
('ECG', 1751568625623747614, [-295, -283, -278, -283, -280, -270, -266, -270, -278, -283, -278, -266, -263, -266, -273, -275, -270, -263, -263, -268, -268, -266, -268, -268, -261, -261, -263, -261, -256, -251, -249, -249, -246, -246, -253, -249, -239, -241, -249, -244, -236, -239, -244, -236, -222, -227, -227, -224, -239, -249, -231, -212, -200, -187, -185, -200, -214, -224, -224, -222, -222, -222, -234, -292, -302, 4, 644, 1159, 920, -175, -832, -341, -39])
('ECG', 1751568626185314420, [-302, -292, -166, -236, -249, -175, -175, -192, -170, -158, -151, -131, -117, -104, -87, -75, -65, -51, -43, -51, -53, -53, -70, -90, -102, -122, -153, -192, -231, -258, -280, -307, -327, -329, -336, -354, -349, -332, -324, -319, -314, -314, -310, -302, -295, -290, -285, -285, -285, -283, -278, -275, -275, -283, -288, -280, -278, -278, -278, -285, -283, -275, -278, -283, -273, -266, -268, -266, -268, -268, -261, -256, -258])
('ECG', 1751568626746911742, [-258, -258, -258, -246, -246, -256, -251, -241, -246, -246, -246, -253, -253, -241, -222, -205, -202, -202, -205, -229, -251, -246, -231, -234, -241, -256, -307, -322, -61, 541, 1101, 932, -197, -969, -466, -63, -295, -285, -139, -205, -239, -175, -168, -173, -146, -129, -119, -102, -95, -85, -63, -43, -39, -39, -29, -24, -29, -36, -56, -75, -90, -124, -161, -183, -212, -258, -290, -300, -307, -319, -334, -339, -334])
('ECG', 1751568627308509064, [-332, -327, -319, -312, -302, -300, -300, -288, -273, -266, -270, -275, -266, -261, -268, -270, -270, -275, -270, -261, -261, -270, -268, -258, -266, -273, -266, -261, -256, -251, -249, -249, -244, -239, -236, -239, -241, -234, -227, -229, -234, -229, -224, -224, -214, -205, -209, -222, -227, -227, -207, -190, -195, -197, -180, -178, -195, -217, -224, -217, -219, -224, -231, -273, -312, -146, 395, 1022, 1113, 178, -859, -622, -56])
('ECG', 1751568627870106386, [-202, -312, -161, -170, -224, -175, -146, -161, -151, -129, -122, -114, -90, -70, -65, -53, -39, -36, -31, -24, -21, -26, -41, -63, -83, -100, -129, -168, -200, -231, -263, -283, -295, -305, -312, -319, -322, -314, -312, -317, -307, -290, -285, -283, -270, -270, -278, -275, -268, -268, -268, -268, -266, -268, -268, -268, -270, -273, -268, -258, -253, -253, -253, -249, -253, -258, -251, -241, -244, -251, -244, -236, -239])
('ECG', 1751568628431678278, [-241, -241, -234, -217, -217, -231, -224, -207, -212, -227, -227, -227, -229, -227, -224, -212, -195, -192, -185, -183, -202, -222, -219, -214, -222, -219, -219, -266, -322, -136, 449, 1088, 1140, 175, -817, -546, -31, -234, -339, -175, -195, -251, -195, -178, -195, -178, -158, -153, -139, -112, -100, -95, -75, -58, -51, -51, -58, -58, -46, -56, -78, -85, -112, -163, -187, -197, -256, -327, -336, -334, -358, -363, -346])
('ECG', 1751568628993270514, [-349, -358, -358, -363, -361, -351, -351, -354, -351, -329, -305, -312, -327, -305, -285, -297, -307, -302, -302, -307, -302, -288, -290, -290, -280, -292, -302, -297, -295, -292, -283, -292, -307, -283, -266, -278, -258, -251, -290, -292, -268, -256, -246, -253, -280, -278, -231, -212, -258, -273, -256, -266, -283, -268, -227, -200, -207, -217, -212, -227, -258, -258, -239, -244, -249, -246, -295, -378, -290, 195, 905, 1286, 622])
('ECG', 1751568629554867836, [-732, -988, -239, -117, -351, -229, -153, -234, -207, -166, -190, -192, -178, -156, -95, -70, -95, -70, -43, -75, -80, -31, -7, -19, -14, -9, -51, -87, -90, -134, -183, -192, -219, -275, -312, -332, -351, -368, -373, -358, -344, -356, -368, -349, -334, -344, -339, -314, -312, -324, -310, -275, -263, -273, -283, -292, -305, -305, -283, -270, -297, -302, -251, -253, -300, -278, -246, -258, -258, -244, -246, -256, -253])
('ECG', 1751568630116465158, [-246, -239, -241, -236, -227, -224, -222, -219, -219, -214, -214, -219, -212, -195, -185, -173, -161, -170, -197, -209, -212, -207, -197, -195, -217, -285, -290, 48, 732, 1252, 871, -417, -1013, -351, -34, -275, -209, -90, -168, -175, -112, -112, -117, -90, -85, -90, -65, -41, -36, -21, 0, 12, 19, 29, 24, 21, 29, 17, -14, -36, -70, -117, -161, -195, -227, -258, -283, -297, -314, -327, -324, -312, -307])
('ECG', 1751568630678047222, [-307, -300, -292, -288, -283, -275, -270, -270, -266, -263, -256, -239, -234, -249, -256, -253, -256, -270, -275, -256, -244, -251, -253, -251, -256, -251, -244, -249, -251, -244, -236, -241, -246, -241, -236, -234, -234, -231, -231, -231, -227, -227, -229, -224, -212, -209, -200, -200, -217, -219, -202, -202, -214, -212, -197, -187, -180, -173, -168, -178, -192, -202, -207, -212, -212, -207, -209, -241, -305, -278, 85, 737, 1215])
('ECG', 1751568631239639458, [842, -361, -861, -251, -41, -319, -266, -156, -231, -229, -170, -178, -175, -144, -141, -136, -114, -104, -100, -78, -61, -46, -26, -14, -21, -24, -21, -36, -68, -87, -104, -136, -168, -205, -253, -283, -300, -322, -334, -339, -346, -344, -334, -327, -327, -329, -322, -312, -314, -307, -283, -278, -283, -273, -268, -275, -285, -290, -283, -273, -278, -283, -283, -275, -266, -263, -278, -295, -288, -268, -268, -275, -263])
('ECG', 1751568631801231694, [-253, -261, -266, -263, -263, -263, -256, -261, -261, -244, -234, -239, -253, -275, -278, -253, -239, -241, -239, -217, -207, -219, -229, -234, -249, -256, -251, -249, -268, -322, -393, -307, 187, 908, 1276, 571, -764, -922, -187, -156, -383, -234, -173, -266, -234, -183, -214, -205, -148, -139, -146, -124, -104, -95, -75, -48, -34, -19, -9, -12, -21, -26, -36, -58, -75, -102, -148, -195, -229, -256, -288, -312, -324])
('ECG', 1751568632362823928, [-334, -334, -322, -317, -317, -312, -302, -297, -297, -290, -283, -278, -273, -266, -253, -251, -253, -256, -249, -241, -239, -244, -246, -244, -244, -239, -231, -236, -241, -229, -227, -231, -224, -214, -214, -219, -219, -214, -214, -222, -212, -195, -197, -202, -195, -197, -205, -205, -197, -195, -197, -202, -205, -202, -185, -170, -168, -153, -146, -166, -190, -205, -205, -197, -190, -200, -244, -307, -195, 322, 1025, 1320, 590])
('ECG', 1751568632924416166, [-607, -678, -53, -109, -336, -205, -158, -234, -195, -148, -168, -158, -129, -122, -114, -97, -83, -68, -58, -53, -36, -17, -17, -19, -14, -17, -31, -48, -73, -102, -139, -178, -214, -249, -280, -300, -314, -327, -324, -319, -314, -307, -305, -302, -297, -300, -302, -295, -280, -266, -268, -278, -273, -263, -266, -273, -270, -266, -263, -270, -275, -270, -258, -253, -268, -273, -268, -270, -275, -263, -251, -258, -266])
('ECG', 1751568633486008402, [-253, -256, -266, -258, -249, -256, -256, -244, -236, -239, -241, -239, -231, -229, -222, -217, -224, -227, -219, -209, -200, -190, -185, -185, -187, -200, -222, -231, -227, -222, -224, -239, -300, -314, -2, 651, 1174, 922, -207, -876, -354, -29, -297, -300, -170, -231, -244, -175, -178, -192, -163, -144, -139, -122, -107, -100, -85, -65, -53, -36, -19, -7, -9, -26, -48, -65, -78, -104, -146, -175, -205, -249, -292])
('ECG', 1751568634047585378, [-317, -324, -324, -334, -354, -356, -336, -317, -317, -317, -317, -317, -302, -288, -290, -290, -280, -280, -295, -297, -280, -275, -283, -283, -280, -280, -275, -273, -278, -278, -270, -273, -268, -261, -266, -270, -258, -251, -263, -266, -249, -241, -256, -253, -234, -234, -244, -239, -241, -249, -246, -236, -234, -229, -212, -195, -192, -197, -212, -231, -246, -241, -229, -234, -246, -273, -339, -288, 139, 815, 1225, 693, -581])
('ECG', 1751568634609182700, [-937, -253, -87, -327, -229, -146, -227, -214, -163, -163, -153, -136, -134, -112, -87, -83, -73, -53, -36, -21, -9, -2, -2, -4, -9, -21, -46, -73, -104, -136, -173, -209, -246, -273, -297, -319, -327, -322, -319, -324, -317, -302, -297, -300, -295, -283, -270, -273, -278, -270, -270, -275, -263, -258, -266, -261, -251, -256, -263, -266, -266, -258, -261, -266, -261, -249, -249, -251, -244, -244, -249, -244, -239])
('ECG', 1751568635170780022, [-249, -251, -241, -236, -236, -229, -227, -231, -219, -209, -217, -227, -227, -217, -202, -190, -187, -173, -161, -175, -202, -214, -212, -207, -207, -214, -239, -295, -278, 83, 751, 1235, 849, -344, -844, -246, -31, -307, -251, -141, -217, -214, -153, -158, -161, -136, -129, -119, -95, -83, -78, -61, -43, -34, -24, -12, 0, -4, -9, -14, -34, -61, -85, -122, -170, -212, -239, -266, -292, -302, -310, -317, -317])
('ECG', 1751568635732346828, [-314, -312, -302, -292, -288, -280, -278, -273, -263, -263, -266, -266, -263, -258, -258, -261, -261, -268, -268, -266, -268, -268, -268, -266, -261, -256, -258, -253, -246, -256, -261, -251, -246, -251, -251, -244, -239, -239, -241, -244, -239, -227, -227, -231, -222, -217, -224, -229, -222, -219, -222, -217, -219, -231, -229, -217, -209, -202, -192, -185, -178, -192, -217, -222, -217, -222, -224, -219, -246, -310, -234, 209, 864])
('ECG', 1751568636293944150, [1196, 610, -549, -764, -148, -107, -346, -236, -173, -249, -217, -166, -187, -192, -166, -153, -144, -124, -104, -92, -83, -68, -48, -41, -43, -39, -36, -51, -68, -78, -87, -114, -153, -187, -222, -258, -295, -319, -329, -336, -344, -344, -336, -329, -314, -307, -305, -305, -314, -310, -288, -278, -280, -280, -280, -290, -288, -278, -273, -283, -290, -283, -273, -280, -292, -292, -283, -275, -280, -283, -275, -273, -275])
('ECG', 1751568636855541472, [-273, -273, -270, -268, -273, -275, -268, -263, -266, -268, -263, -261, -258, -261, -253, -239, -236, -239, -231, -217, -219, -234, -249, -253, -253, -241, -239, -258, -317, -351, -92, 554, 1152, 957, -249, -1040, -488, -58, -290, -288, -148, -214, -244, -178, -170, -185, -158, -134, -129, -119, -100, -87, -70, -53, -43, -39, -29, -19, -24, -41, -53, -63, -87, -122, -151, -183, -231, -273, -297, -319, -341, -351, -354])
('ECG', 1751568637417138794, [-358, -361, -351, -339, -329, -324, -317, -305, -297, -305, -312, -305, -292, -288, -278, -273, -275, -278, -278, -273, -273, -275, -285, -288, -283, -275, -273, -273, -263, -266, -273, -270, -266, -263, -251, -244, -249, -249, -251, -258, -251, -244, -249, -251, -251, -236, -212, -197, -195, -183, -185, -214, -241, -249, -244, -229, -212, -229, -295, -290, 58, 729, 1203, 764, -463, -910, -251, -34, -310, -249, -136, -214, -217])
('ECG', 1751568637978715772, [-153, -153, -156, -129, -117, -109, -87, -68, -58, -43, -39, -29, -9, 12, 17, 2, -12, -21, -46, -73, -90, -124, -180, -214, -227, -263, -307, -319, -310, -307, -302, -302, -305, -302, -295, -290, -285, -275, -273, -275, -273, -273, -273, -275, -270, -263, -258, -256, -253, -258, -266, -270, -266, -261, -270, -268, -246, -246, -263, -256, -244, -244, -244, -249, -256, -246, -239, -246, -251, -244, -241, -239, -239])
('ECG', 1751568638540308008, [-236, -234, -231, -229, -231, -236, -229, -212, -197, -192, -190, -175, -173, -187, -200, -207, -202, -200, -200, -205, -249, -302, -173, 334, 976, 1162, 358, -732, -661, -68, -158, -327, -175, -168, -246, -197, -161, -185, -173, -144, -139, -124, -104, -95, -80, -48, -36, -36, -29, -26, -29, -21, -29, -53, -73, -87, -119, -158, -195, -231, -263, -290, -312, -329, -339, -344, -344, -341, -334, -322, -324, -327, -314])
('ECG', 1751568639101900244, [-297, -292, -295, -292, -290, -295, -292, -275, -268, -270, -273, -280, -283, -275, -275, -285, -290, -285, -275, -273, -278, -273, -270, -270, -270, -270, -273, -266, -258, -261, -258, -258, -268, -273, -258, -249, -241, -231, -219, -207, -202, -222, -246, -251, -239, -234, -234, -249, -305, -334, -68, 581, 1164, 964, -234, -1030, -485, -58, -297, -290, -146, -202, -227, -170, -175, -180, -144, -131, -129, -102, -83, -73, -46])
('ECG', 1751568639663497566, [-17, -17, -21, -17, -12, -12, -19, -39, -56, -65, -95, -134, -168, -200, -236, -263, -278, -302, -317, -319, -317, -317, -319, -314, -305, -300, -292, -273, -266, -270, -270, -266, -261, -263, -266, -273, -278, -278, -280, -278, -273, -273, -273, -270, -268, -266, -263, -263, -263, -263, -266, -258, -246, -246, -251, -249, -249, -249, -244, -246, -256, -251, -231, -212, -205, -192, -187, -207, -227, -227, -224, -224, -222])
('ECG', 1751568640225094888, [-227, -253, -307, -241, 209, 900, 1237, 561, -656, -781, -97, -85, -332, -200, -134, -219, -192, -144, -158, -148, -112, -107, -104, -90, -75, -63, -43, -29, -17, -2, 2, 0, -7, -14, -29, -51, -80, -114, -151, -190, -227, -258, -283, -302, -314, -317, -317, -314, -312, -307, -300, -297, -290, -278, -273, -275, -278, -270, -263, -266, -266, -258, -261, -261, -261, -268, -268, -258, -258, -268, -266, -253, -251])
('ECG', 1751568640786676952, [-261, -263, -258, -251, -251, -249, -249, -246, -246, -249, -249, -241, -239, -234, -229, -227, -234, -239, -234, -224, -217, -214, -207, -195, -187, -197, -214, -224, -224, -227, -229, -224, -251, -310, -219, 246, 898, 1171, 468, -676, -737, -109, -129, -336, -209, -163, -231, -197, -156, -173, -158, -134, -136, -126, -102, -83, -68, -58, -48, -36, -21, -17, -19, -34, -41, -48, -68, -92, -119, -151, -190, -236, -270])
('ECG', 1751568641348269188, [-290, -312, -341, -346, -332, -319, -317, -312, -307, -300, -292, -290, -290, -288, -288, -280, -270, -275, -280, -268, -261, -270, -283, -280, -275, -275, -275, -278, -278, -270, -263, -268, -270, -261, -256, -263, -263, -268, -273, -261, -253, -258, -249, -231, -229, -234, -244, -253, -251, -241, -236, -229, -217, -202, -200, -200, -195, -214, -244, -251, -244, -244, -249, -253, -278, -336, -236, 268, 939, 1164, 336, -832, -771])
('ECG', 1751568641909861424, [-122, -178, -332, -173, -151, -219, -173, -136, -151, -136, -114, -112, -100, -75, -58, -51, -41, -24, -12, -7, -12, -12, -12, -24, -46, -58, -70, -104, -144, -175, -207, -239, -268, -292, -310, -307, -300, -297, -292, -288, -283, -278, -278, -268, -258, -261, -268, -263, -251, -246, -253, -261, -258, -249, -249, -256, -256, -253, -253, -253, -246, -241, -246, -249, -246, -244, -241, -234, -231, -234, -239, -236, -229])
('ECG', 1751568642471453660, [-227, -229, -227, -219, -212, -214, -219, -212, -209, -214, -212, -205, -202, -209, -219, -222, -209, -192, -180, -180, -178, -170, -180, -202, -207, -205, -209, -209, -202, -229, -290, -214, 251, 925, 1235, 573, -593, -715, -87, -97, -319, -185, -136, -224, -192, -144, -161, -156, -124, -114, -109, -92, -83, -70, -46, -34, -31, -21, -14, -14, -17, -19, -39, -65, -80, -97, -136, -173, -202, -234, -268, -288, -297])
('ECG', 1751568643033045896, [-300, -297, -297, -302, -295, -285, -285, -280, -266, -263, -266, -253, -246, -256, -249, -236, -246, -253, -244, -241, -244, -241, -234, -234, -244, -251, -236, -227, -231, -234, -229, -227, -229, -224, -217, -217, -219, -219, -224, -227, -224, -222, -219, -212, -207, -207, -207, -207, -209, -209, -209, -212, -207, -202, -205, -205, -202, -200, -202, -207, -202, -183, -170, -173, -178, -168, -173, -197, -202, -192, -190, -190, -202])
('ECG', 1751568643594617786, [-234, -280, -246, 109, 764, 1218, 788, -400, -839, -229, -39, -302, -236, -134, -200, -187, -134, -151, -156, -124, -109, -97, -80, -78, -68, -43, -34, -31, -26, -19, -14, -19, -34, -51, -61, -73, -97, -131, -156, -185, -219, -253, -280, -288, -292, -310, -317, -305, -300, -300, -290, -295, -297, -275, -263, -275, -273, -263, -266, -263, -268, -280, -280, -278, -285, -290, -283, -283, -288, -285, -273, -270, -278])
('ECG', 1751568644156215108, [-280, -275, -270, -270, -261, -253, -253, -249, -246, -241, -234, -236, -239, -227, -222, -229, -224, -212, -217, -227, -224, -222, -212, -187, -168, -166, -158, -148, -166, -197, -209, -200, -192, -197, -200, -231, -292, -168, 368, 1030, 1169, 251, -856, -664, -39, -163, -305, -144, -136, -200, -156, -129, -139, -114, -92, -95, -87, -68, -61, -53, -36, -21, -19, -12, -4, -17, -34, -41, -51, -73, -97, -119, -146])
('ECG', 1751568644717792086, [-180, -224, -258, -275, -290, -310, -310, -307, -312, -314, -305, -290, -285, -275, -266, -268, -268, -263, -258, -253, -253, -258, -256, -253, -256, -256, -251, -244, -244, -249, -249, -249, -246, -241, -241, -249, -251, -241, -236, -246, -246, -234, -231, -231, -224, -219, -219, -222, -217, -202, -197, -200, -207, -207, -195, -192, -202, -207, -209, -209, -187, -168, -168, -161, -146, -163, -192, -202, -200, -200, -197, -200, -229])
('ECG', 1751568645279384322, [-285, -219, 222, 893, 1228, 620, -549, -747, -112, -78, -332, -214, -136, -219, -205, -156, -170, -161, -129, -131, -126, -102, -83, -73, -63, -51, -39, -31, -34, -26, -31, -48, -56, -73, -97, -109, -139, -185, -217, -241, -280, -295, -297, -310, -317, -305, -302, -307, -300, -290, -288, -283, -278, -280, -280, -273, -270, -263, -256, -253, -256, -261, -270, -270, -263, -268, -273, -266, -261, -261, -256, -258, -263])
('ECG', 1751568645840976556, [-263, -256, -253, -256, -253, -241, -236, -239, -239, -236, -231, -229, -229, -224, -227, -234, -236, -236, -227, -202, -190, -190, -180, -185, -207, -224, -227, -227, -224, -219, -227, -278, -305, -61, 539, 1108, 983, -102, -927, -468, -17, -249, -297, -148, -202, -246, -180, -158, -166, -136, -119, -122, -100, -70, -65, -61, -43, -34, -24, -9, -14, -36, -39, -34, -53, -73, -97, -136, -175, -202, -229, -261, -297])
('ECG', 1751568646402543362, [-322, -322, -317, -322, -324, -307, -297, -305, -300, -275, -270, -280, -280, -266, -256, -251, -256, -263, -261, -258, -261, -258, -253, -261, -263, -251, -249, -251, -251, -253, -253, -249, -251, -251, -244, -241, -241, -234, -231, -239, -234, -224, -222, -224, -231, -231, -214, -192, -190, -195, -183, -175, -190, -209, -222, -217, -209, -212, -219, -249, -302, -234, 209, 888, 1191, 471, -734, -822, -146, -114, -310, -173, -129])
('ECG', 1751568646964140684, [-209, -178, -136, -146, -136, -117, -107, -97, -78, -58, -43, -36, -29, -12, 4, 2, -4, -7, -19, -43, -61, -75, -102, -146, -185, -212, -241, -270, -288, -292, -300, -312, -312, -300, -292, -283, -270, -270, -263, -256, -256, -249, -244, -249, -249, -244, -241, -244, -249, -249, -246, -244, -244, -246, -246, -249, -251, -244, -241, -246, -246, -244, -239, -236, -239, -236, -231, -227, -222, -222, -219, -219, -222])
('ECG', 1751568647525722748, [-217, -209, -214, -222, -227, -219, -205, -183, -173, -170, -168, -175, -200, -217, -212, -202, -200, -205, -234, -290, -217, 229, 903, 1225, 581, -578, -729, -100, -78, -319, -207, -136, -212, -187, -146, -163, -151, -117, -114, -109, -83, -65, -61, -48, -36, -29, -21, -9, -9, -24, -41, -51, -65, -85, -107, -139, -180, -219, -251, -275, -290, -302, -314, -312, -307, -305, -300, -290, -285, -283, -275, -273, -273])
('ECG', 1751568648087314984, [-268, -263, -263, -266, -263, -263, -256, -251, -253, -256, -249, -249, -256, -256, -251, -249, -251, -253, -251, -241, -231, -234, -239, -239, -231, -224, -227, -231, -227, -222, -229, -234, -227, -222, -227, -234, -234, -219, -205, -200, -202, -195, -180, -185, -212, -219, -207, -205, -207, -205, -222, -273, -275, 26, 659, 1162, 869, -251, -847, -310, -14, -273, -256, -131, -197, -214, -151, -144, -151, -126, -119, -117, -97])
('ECG', 1751568648648902132, [-87, -75, -56, -43, -34, -24, -21, -19, -14, -26, -48, -56, -73, -102, -126, -166, -205, -227, -256, -285, -297, -302, -312, -314, -307, -305, -297, -288, -283, -283, -275, -268, -270, -270, -268, -270, -266, -258, -261, -256, -246, -253, -261, -268, -275, -266, -258, -263, -258, -251, -251, -251, -253, -256, -246, -244, -249, -246, -244, -249, -241, -229, -231, -229, -222, -229, -234, -229, -231, -234, -234, -241, -229])
('ECG', 1751568649210499454, [-205, -197, -200, -187, -190, -214, -229, -222, -217, -222, -222, -224, -253, -302, -183, 317, 964, 1135, 268, -842, -717, -100, -170, -295, -148, -151, -209, -158, -134, -148, -129, -112, -104, -92, -83, -73, -53, -36, -26, -12, -4, -14, -19, -24, -34, -48, -75, -102, -124, -151, -187, -212, -239, -270, -285, -295, -312, -310, -300, -305, -307, -292, -280, -288, -285, -263, -256, -266, -268, -263, -256, -253, -258])
('ECG', 1751568649772066260, [-261, -256, -258, -263, -258, -251, -253, -258, -253, -241, -239, -241, -236, -227, -229, -244, -246, -236, -231, -231, -229, -227, -224, -227, -227, -222, -222, -219, -214, -212, -209, -207, -217, -227, -222, -209, -200, -192, -183, -166, -158, -183, -205, -205, -202, -202, -200, -202, -231, -280, -166, 332, 979, 1154, 327, -751, -639, -39, -141, -302, -156, -136, -197, -153, -129, -146, -129, -107, -100, -87, -75, -65, -48])
('ECG', 1751568650333653410, [-41, -31, -17, -9, -12, -12, -19, -34, -48, -63, -75, -102, -144, -180, -207, -231, -253, -275, -290, -288, -285, -288, -288, -278, -268, -270, -273, -266, -263, -261, -256, -251, -249, -244, -241, -244, -244, -244, -249, -253, -253, -253, -253, -249, -246, -246, -244, -241, -239, -239, -239, -236, -231, -227, -229, -236, -229, -214, -209, -217, -217, -207, -202, -205, -205, -205, -209, -212, -202, -195, -200, -209, -207])
('ECG', 1751568650895245646, [-202, -197, -183, -170, -180, -175, -163, -183, -209, -207, -190, -180, -187, -202, -236, -270, -104, 449, 1071, 1113, 180, -773, -507, 2, -180, -288, -136, -158, -227, -175, -144, -156, -134, -107, -107, -104, -85, -68, -61, -48, -39, -31, -19, -19, -26, -31, -39, -56, -73, -87, -117, -151, -180, -207, -234, -261, -288, -305, -307, -307, -312, -310, -302, -297, -290, -275, -270, -275, -270, -266, -268, -263, -263])
('ECG', 1751568651456827708, [-268, -266, -261, -263, -266, -263, -263, -261, -258, -253, -249, -251, -253, -253, -249, -244, -246, -249, -244, -241, -241, -236, -236, -239, -234, -227, -234, -244, -236, -234, -234, -224, -219, -224, -229, -222, -217, -207, -187, -183, -185, -173, -173, -200, -214, -205, -202, -207, -209, -234, -297, -236, 195, 861, 1191, 517, -683, -822, -163, -114, -310, -180, -122, -197, -173, -131, -144, -129, -102, -102, -95, -70, -58])
('ECG', 1751568652018425030, [-43, -24, -14, -14, -7, 0, 4, -4, -24, -36, -51, -68, -92, -122, -161, -195, -222, -244, -266, -280, -285, -295, -302, -292, -275, -275, -275, -268, -256, -251, -253, -256, -249, -241, -239, -236, -236, -234, -236, -239, -236, -227, -231, -236, -234, -234, -234, -236, -241, -239, -231, -231, -229, -222, -224, -224, -217, -219, -219, -219, -222, -219, -214, -207, -200, -200, -202, -200, -195, -195, -197, -205, -212])
('ECG', 1751568652579991836, [-209, -192, -173, -168, -161, -146, -146, -178, -207, -205, -190, -190, -200, -209, -251, -268, -4, 622, 1164, 961, -124, -834, -351, 12, -251, -273, -124, -170, -205, -151, -141, -151, -124, -107, -109, -102, -80, -61, -43, -36, -36, -26, -14, -17, -26, -34, -41, -53, -73, -95, -124, -153, -192, -231, -253, -270, -290, -302, -302, -305, -310, -307, -292, -285, -283, -278, -278, -275, -270, -258, -256, -263, -266])
('ECG', 1751568653141589158, [-258, -256, -253, -253, -258, -256, -246, -244, -251, -251, -244, -239, -236, -241, -246, -239, -234, -244, -241, -227, -227, -234, -222, -207, -217, -227, -212, -202, -207, -212, -209, -207, -205, -202, -197, -197, -200, -205, -200, -192, -202, -212, -197, -180, -173, -170, -161, -161, -185, -202, -192, -197, -214, -205, -195, -244, -288, -90, 483, 1069, 1052, 95, -805, -495, -9, -209, -300, -146, -180, -236, -170, -144, -170])
('ECG', 1751568653703176308, [-156, -124, -114, -112, -97, -80, -65, -56, -43, -26, -19, -26, -29, -26, -34, -51, -70, -100, -126, -153, -185, -214, -244, -275, -297, -305, -307, -310, -317, -312, -300, -297, -295, -280, -273, -273, -268, -268, -273, -270, -261, -261, -270, -270, -261, -258, -263, -258, -256, -261, -261, -253, -256, -261, -261, -253, -251, -249, -244, -239, -236, -234, -239, -236, -229, -229, -229, -219, -219, -227, -219, -205, -209])
('ECG', 1751568654264753284, [-214, -214, -229, -236, -219, -190, -173, -173, -178, -173, -175, -195, -205, -202, -205, -212, -209, -222, -273, -280, -2, 620, 1137, 864, -292, -942, -388, -39, -261, -236, -119, -183, -197, -139, -139, -148, -112, -92, -102, -95, -68, -51, -41, -24, -12, -7, 0, -7, -21, -24, -29, -43, -61, -87, -129, -163, -185, -212, -244, -266, -283, -300, -297, -295, -297, -297, -297, -292, -285, -270, -258, -251, -253])
('ECG', 1751568654826330262, [-258, -253, -244, -246, -253, -253, -249, -244, -246, -246, -244, -236, -239, -244, -239, -234, -239, -231, -222, -224, -231, -231, -224, -222, -222, -217, -212, -214, -207, -202, -205, -205, -200, -197, -205, -202, -200, -200, -197, -195, -192, -197, -212, -214, -195, -173, -170, -173, -158, -148, -170, -205, -207, -195, -197, -205, -209, -253, -290, -70, 517, 1093, 1022, 2, -844, -446, 9, -222, -290, -134, -158, -202, -151])
('ECG', 1751568655387917410, [-136, -151, -126, -104, -97, -85, -70, -56, -39, -26, -19, -14, -7, -4, -14, -21, -24, -34, -48, -73, -104, -139, -175, -205, -236, -270, -292, -302, -302, -300, -307, -302, -288, -280, -280, -273, -266, -263, -266, -258, -246, -246, -251, -251, -251, -256, -261, -263, -256, -251, -249, -244, -244, -246, -246, -241, -239, -236, -236, -229, -227, -227, -217, -217, -224, -222, -209, -212, -222, -214, -205, -207, -207])
('ECG', 1751568655949514732, [-205, -202, -200, -202, -207, -207, -202, -195, -183, -178, -175, -170, -166, -170, -185, -209, -212, -197, -192, -197, -231, -280, -156, 356, 991, 1127, 292, -744, -615, -34, -144, -312, -180, -170, -231, -180, -151, -170, -153, -126, -114, -100, -87, -83, -68, -56, -51, -34, -12, -7, -9, -12, -29, -48, -58, -73, -114, -163, -202, -231, -258, -283, -302, -319, -322, -327, -334, -327, -300, -295, -305, -297, -288])
('ECG', 1751568656511076452, [-288, -285, -273, -268, -273, -275, -261, -253, -263, -263, -251, -251, -261, -266, -263, -261, -258, -258, -258, -249, -246, -251, -246, -249, -256, -253, -239, -231, -231, -231, -234, -236, -229, -222, -214, -214, -214, -219, -222, -222, -227, -224, -212, -195, -183, -183, -183, -173, -180, -209, -222, -212, -205, -207, -217, -246, -300, -253, 144, 808, 1193, 620, -595, -876, -219, -87, -305, -202, -129, -205, -187, -139, -146])
('ECG', 1751568657072668688, [-144, -124, -119, -104, -78, -63, -58, -46, -34, -21, -7, 0, -4, -17, -29, -36, -53, -80, -100, -119, -161, -205, -236, -261, -285, -307, -314, -310, -310, -310, -307, -307, -297, -280, -266, -266, -268, -268, -266, -258, -244, -241, -253, -256, -251, -249, -249, -251, -253, -249, -246, -253, -251, -241, -241, -244, -246, -239, -231, -234, -239, -231, -229, -227, -224, -219, -217, -219, -222, -219, -212, -202, -205])
('ECG', 1751568657634245664, [-214, -214, -205, -185, -178, -180, -168, -170, -195, -205, -197, -197, -202, -202, -219, -273, -270, 29, 664, 1171, 861, -305, -915, -336, -12, -270, -253, -122, -180, -197, -136, -134, -141, -119, -104, -104, -87, -63, -48, -41, -31, -21, -9, 4, 12, 2, -9, -19, -34, -56, -78, -107, -148, -190, -222, -249, -270, -285, -295, -305, -307, -300, -292, -288, -285, -280, -275, -268, -256, -251, -261, -256, -249])
('ECG', 1751568658195822642, [-253, -253, -253, -256, -246, -244, -251, -249, -241, -239, -239, -246, -249, -234, -224, -231, -244, -246, -234, -222, -217, -219, -224, -222, -214, -205, -205, -214, -214, -209, -207, -200, -202, -205, -197, -190, -187, -195, -207, -214, -205, -187, -175, -166, -153, -153, -178, -197, -197, -195, -195, -197, -202, -229, -278, -163, 327, 966, 1169, 417, -654, -625, -43, -124, -305, -170, -148, -214, -166, -134, -156, -136, -109])
('ECG', 1751568658757409790, [-112, -102, -83, -70, -58, -51, -43, -24, -2, 0, -4, -19, -46, -53, -41, -58, -107, -141, -170, -205, -229, -256, -295, -310, -307, -310, -302, -292, -305, -312, -307, -302, -297, -288, -270, -258, -268, -275, -263, -261, -283, -297, -280, -278, -288, -280, -263, -261, -270, -270, -270, -275, -263, -244, -258, -270, -246, -236, -253, -251, -231, -222, -222, -224, -224, -212, -207, -209, -205, -207, -205, -175, -153])
('ECG', 1751568659319007112, [-161, -158, -131, -129, -163, -178, -180, -185, -187, -187, -202, -251, -222, 129, 764, 1164, 712, -395, -769, -192, -26, -270, -200, -102, -178, -168, -119, -134, -124, -92, -100, -100, -65, -43, -36, -21, -14, -17, -4, 14, 14, 4, 0, -12, -34, -58, -80, -109, -146, -190, -224, -249, -273, -292, -295, -297, -310, -314, -300, -288, -283, -285, -290, -283, -270, -268, -270, -263, -258, -261, -253, -246, -251])
('ECG', 1751568659880568832, [-253, -249, -251, -258, -253, -236, -239, -256, -253, -236, -239, -253, -236, -214, -229, -244, -229, -217, -231, -234, -219, -219, -224, -209, -197, -200, -185, -166, -170, -173, -168, -180, -205, -217, -202, -185, -190, -207, -241, -288, -151, 373, 1000, 1054, 104, -878, -639, -95, -190, -266, -124, -129, -175, -144, -122, -119, -102, -90, -80, -56, -39, -31, -19, -2, 0, 7, 21, 26, 19, 12, -2, -17, -29])
('ECG', 1751568660442140722, [-61, -95, -124, -168, -212, -236, -256, -273, -290, -307, -307, -288, -283, -292, -297, -283, -266, -256, -253, -251, -241, -239, -241, -239, -234, -236, -239, -239, -241, -241, -231, -236, -249, -253, -251, -253, -253, -244, -241, -249, -249, -246, -246, -244, -239, -231, -234, -229, -217, -207, -205, -202, -195, -192, -214, -236, -219, -200, -205, -212, -236, -302, -246, 178, 852, 1174, 458, -749, -861, -207, -139, -283, -153])
('ECG', 1751568661003722786, [-117, -173, -144, -129, -148, -124, -97, -95, -80, -58, -46, -31, -12, 7, 19, 26, 29, 29, 26, 12, -7, -31, -58, -85, -122, -175, -214, -231, -263, -310, -332, -314, -295, -302, -319, -319, -305, -290, -280, -285, -290, -273, -258, -256, -256, -251, -253, -258, -261, -258, -251, -246, -249, -246, -253, -263, -261, -258, -258, -251, -246, -251, -251, -244, -231, -229, -239, -239, -239, -241, -241, -234, -209])
('ECG', 1751568661565304848, [-192, -200, -195, -173, -183, -214, -231, -231, -219, -217, -227, -244, -288, -288, 43, 712, 1201, 803, -417, -954, -344, -73, -300, -224, -112, -190, -180, -117, -129, -134, -100, -90, -90, -68, -43, -31, -14, 0, 0, 4, 24, 34, 24, 14, 4, -17, -36, -58, -97, -144, -180, -205, -229, -268, -297, -300, -295, -300, -300, -295, -288, -280, -275, -266, -251, -258, -268, -258, -241, -231, -234, -246, -244])
('ECG', 1751568662126876740, [-229, -236, -249, -246, -241, -244, -239, -229, -229, -231, -227, -227, -231, -229, -229, -229, -229, -231, -229, -217, -212, -205, -187, -173, -170, -175, -192, -207, -217, -217, -212, -209, -214, -244, -312, -266, 156, 844, 1242, 651, -598, -852, -173, -83, -329, -217, -144, -224, -192, -144, -166, -148, -107, -117, -134, -102, -65, -58, -53, -46, -36, -4, 19, 7, 0, -4, -34, -53, -51, -92, -156, -195, -222])
('ECG', 1751568662688438458, [-266, -300, -319, -329, -329, -332, -334, -322, -312, -312, -305, -290, -280, -273, -266, -263, -253, -244, -241, -239, -234, -236, -236, -236, -234, -222, -227, -236, -224, -212, -222, -227, -214, -217, -224, -224, -217, -209, -209, -214, -212, -205, -202, -209, -222, -219, -200, -185, -185, -175, -153, -158, -187, -205, -205, -202, -207, -209, -219, -275, -312, -39, 622, 1240, 1132, 7, -864, -410, 14, -263, -307, -146, -192])
('ECG', 1751568663250030694, [-224, -158, -156, -170, -136, -114, -119, -107, -83, -56, -31, -24, -12, 12, 14, 9, 12, 7, -2, -2, -14, -51, -90, -126, -166, -205, -239, -268, -290, -302, -307, -307, -302, -295, -292, -288, -278, -266, -261, -263, -258, -253, -261, -261, -246, -246, -258, -246, -234, -244, -251, -246, -241, -241, -234, -234, -251, -258, -253, -244, -241, -239, -241, -246, -246, -239, -239, -241, -236, -224, -224, -229, -227])
('ECG', 1751568663811602584, [-229, -234, -224, -205, -192, -192, -183, -178, -190, -202, -214, -217, -214, -217, -222, -246, -310, -253, 168, 844, 1276, 769, -495, -871, -209, -68, -336, -231, -124, -212, -212, -153, -158, -163, -139, -126, -119, -92, -68, -61, -48, -29, -14, -9, -2, 2, 2, -2, -14, -36, -53, -70, -107, -166, -212, -244, -273, -292, -310, -322, -322, -319, -322, -317, -302, -292, -297, -297, -280, -270, -273, -278, -280])
('ECG', 1751568664373184648, [-268, -251, -246, -251, -251, -256, -261, -251, -246, -258, -258, -244, -239, -239, -234, -234, -241, -249, -244, -219, -212, -229, -231, -219, -217, -224, -222, -212, -209, -202, -197, -209, -217, -212, -212, -205, -192, -180, -175, -168, -166, -173, -192, -209, -212, -202, -202, -219, -246, -302, -249, 175, 881, 1320, 747, -566, -878, -173, -65, -324, -205, -122, -209, -183, -126, -144, -139, -104, -97, -92, -70, -51, -34])
('ECG', 1751568664934746366, [-19, -12, 9, 29, 24, 12, 17, 19, 4, -12, -29, -58, -95, -139, -175, -205, -231, -258, -273, -278, -280, -280, -278, -278, -270, -258, -251, -256, -253, -241, -231, -231, -234, -236, -236, -231, -234, -241, -236, -234, -231, -222, -219, -224, -229, -229, -229, -222, -219, -224, -219, -212, -214, -212, -212, -224, -222, -200, -190, -209, -217, -200, -195, -207, -207, -200, -190, -180, -173, -178, -173, -156, -163])
('ECG', 1751568665496338602, [-185, -195, -195, -190, -195, -200, -219, -283, -251, 153, 856, 1323, 842, -405, -810, -168, -26, -310, -214, -107, -197, -200, -144, -141, -131, -100, -92, -90, -61, -46, -48, -41, -17, 7, 17, 12, 9, 17, 9, -9, -17, -24, -58, -97, -134, -178, -224, -256, -278, -290, -295, -292, -292, -302, -300, -280, -268, -261, -253, -251, -251, -251, -251, -251, -246, -239, -239, -239, -229, -231, -249, -253, -244])
('ECG', 1751568666057900320, [-234, -229, -229, -236, -234, -229, -229, -236, -236, -227, -224, -229, -231, -219, -212, -217, -219, -217, -222, -219, -214, -227, -241, -222, -190, -178, -178, -175, -178, -185, -202, -222, -222, -212, -212, -227, -261, -319, -207, 312, 1003, 1245, 441, -749, -720, -61, -141, -344, -183, -144, -222, -185, -146, -166, -156, -122, -112, -107, -85, -70, -63, -48, -29, -14, -7, -7, -12, -17, -26, -46, -63, -73, -95])
('ECG', 1751568666619492556, [-141, -187, -224, -253, -283, -312, -319, -314, -322, -332, -322, -307, -302, -310, -307, -292, -290, -290, -280, -273, -280, -283, -278, -278, -278, -288, -295, -288, -283, -290, -288, -283, -290, -280, -266, -270, -278, -275, -273, -270, -270, -261, -258, -263, -249, -239, -249, -251, -249, -246, -234, -222, -212, -200, -192, -205, -222, -234, -239, -227, -222, -234, -251, -297, -312, -36, 610, 1171, 966, -209, -976, -429, -21])
('ECG', 1751568667181054274, [-280, -280, -129, -190, -219, -151, -141, -153, -134, -117, -107, -83, -68, -58, -41, -26, -19, -9, -2, -4, -9, -9, -19, -46, -73, -87, -117, -161, -205, -236, -266, -288, -297, -310, -317, -305, -300, -300, -292, -285, -278, -273, -273, -273, -266, -263, -263, -263, -256, -256, -256, -253, -258, -261, -258, -258, -258, -256, -253, -249, -246, -246, -249, -249, -244, -246, -249, -239, -236, -239, -229, -222, -217])
('ECG', 1751568667742646510, [-212, -214, -224, -222, -224, -236, -231, -212, -192, -187, -183, -168, -173, -197, -214, -214, -207, -209, -212, -224, -278, -285, 17, 666, 1198, 913, -275, -908, -310, 14, -268, -249, -107, -175, -192, -131, -139, -148, -114, -100, -102, -78, -58, -58, -48, -21, -12, -17, -12, -2, -2, -9, -21, -46, -70, -87, -112, -148, -183, -209, -234, -261, -283, -292, -292, -292, -292, -288, -280, -273, -268, -258, -251])
('ECG', 1751568668304208228, [-249, -249, -251, -251, -249, -253, -263, -261, -253, -249, -251, -249, -244, -241, -244, -249, -253, -251, -246, -253, -251, -234, -224, -227, -224, -227, -229, -234, -236, -231, -224, -229, -239, -229, -217, -205, -195, -195, -190, -195, -209, -224, -229, -229, -227, -227, -231, -275, -310, -87, 520, 1120, 1035, -29, -908, -490, -4, -234, -302, -144, -178, -214, -151, -146, -168, -139, -109, -100, -85, -73, -73, -53, -29])
('ECG', 1751568668865795376, [-24, -21, -14, -17, -24, -26, -31, -46, -58, -85, -122, -148, -170, -214, -258, -273, -283, -302, -305, -297, -297, -295, -290, -285, -280, -273, -268, -270, -266, -256, -256, -266, -270, -263, -256, -256, -258, -261, -261, -256, -256, -263, -258, -246, -249, -249, -236, -239, -249, -253, -246, -239, -234, -234, -234, -239, -246, -244, -229, -207, -195, -195, -187, -187, -209, -227, -229, -222, -222, -224, -239, -288, -302])
('ECG', 1751568669427362182, [-14, 639, 1191, 927, -268, -964, -378, -4, -263, -249, -104, -166, -190, -136, -131, -134, -102, -83, -78, -68, -48, -39, -29, -4, 0, -2, 7, 14, 7, -9, -29, -43, -58, -83, -109, -144, -178, -214, -246, -263, -270, -283, -295, -295, -285, -275, -263, -263, -263, -249, -246, -253, -256, -253, -251, -241, -236, -241, -246, -241, -239, -244, -241, -239, -239, -241, -241, -236, -234, -227, -219, -227, -234])
('ECG', 1751568669988928986, [-227, -217, -222, -224, -217, -212, -214, -219, -214, -195, -180, -178, -173, -158, -163, -187, -200, -200, -202, -202, -195, -205, -253, -278, -19, 612, 1176, 981, -126, -849, -344, 21, -253, -261, -109, -180, -209, -134, -131, -146, -114, -100, -100, -80, -61, -53, -46, -34, -21, -7, 7, 12, 0, -14, -19, -36, -56, -73, -102, -139, -175, -205, -227, -236, -253, -273, -275, -261, -261, -268, -261, -241, -236])
('ECG', 1751568670550516136, [-241, -234, -227, -236, -244, -239, -236, -236, -234, -229, -229, -236, -236, -229, -227, -224, -224, -231, -239, -227, -214, -217, -229, -227, -217, -214, -222, -222, -219, -214, -212, -212, -212, -219, -227, -217, -202, -195, -180, -166, -173, -195, -207, -214, -214, -207, -207, -224, -263, -307, -124, 476, 1164, 1237, 195, -893, -588, 0, -209, -324, -136, -158, -229, -163, -141, -170, -146, -112, -107, -107, -90, -68, -61])
('ECG', 1751568671112077854, [-58, -48, -29, -17, -26, -41, -51, -61, -70, -85, -97, -114, -144, -175, -205, -236, -261, -273, -278, -280, -278, -270, -261, -258, -256, -253, -253, -251, -253, -258, -253, -244, -246, -253, -246, -244, -251, -253, -251, -246, -246, -253, -251, -239, -234, -239, -244, -241, -236, -239, -234, -217, -224, -234, -219, -214, -239, -251, -229, -214, -212, -195, -175, -175, -197, -217, -214, -219, -236, -241, -231, -239, -295])
('ECG', 1751568671673659916, [-314, -9, 676, 1271, 1015, -278, -1047, -446, -51, -295, -251, -97, -173, -197, -131, -131, -136, -104, -87, -80, -65, -53, -39, -24, -24, -21, -17, -14, -17, -21, -31, -48, -78, -95, -104, -131, -161, -185, -209, -231, -249, -266, -275, -283, -283, -268, -256, -258, -251, -239, -231, -229, -229, -234, -234, -231, -231, -229, -224, -227, -231, -227, -222, -224, -229, -231, -222, -212, -224, -234, -219, -207, -209])
('ECG', 1751568672235226720, [-222, -224, -217, -212, -214, -212, -197, -197, -205, -200, -200, -207, -205, -195, -178, -166, -163, -158, -163, -175, -187, -195, -197, -195, -195, -212, -266, -278, 24, 678, 1188, 842, -356, -935, -322, -4, -263, -227, -95, -161, -178, -122, -124, -131, -104, -92, -90, -73, -56, -46, -36, -24, -14, -9, -12, -9, -17, -39, -58, -65, -75, -90, -112, -144, -183, -214, -224, -244, -278, -285, -280, -278, -263])
('ECG', 1751568672796793524, [-258, -268, -268, -256, -251, -256, -256, -251, -253, -258, -258, -249, -241, -244, -251, -251, -244, -241, -251, -253, -244, -231, -234, -241, -239, -231, -234, -234, -224, -224, -229, -227, -222, -219, -219, -224, -224, -209, -205, -217, -234, -231, -214, -205, -195, -180, -168, -170, -190, -207, -217, -219, -202, -183, -200, -268, -314, -131, 427, 1047, 1086, 102, -895, -581, -2, -178, -288, -126, -146, -207, -148, -129, -146])
('ECG', 1751568673358360330, [-114, -92, -97, -80, -56, -51, -48, -34, -26, -21, -7, 2, -7, -31, -46, -61, -83, -102, -114, -136, -158, -185, -219, -244, -256, -268, -270, -263, -266, -268, -253, -239, -246, -251, -244, -236, -241, -244, -231, -227, -231, -236, -231, -231, -236, -239, -234, -229, -236, -236, -222, -217, -227, -229, -227, -229, -234, -241, -244, -229, -212, -209, -217, -209, -200, -205, -209, -207, -207, -212, -209, -205, -195])
('ECG', 1751568673919947480, [-180, -173, -166, -153, -146, -168, -200, -212, -212, -212, -209, -205, -236, -278, -90, 495, 1086, 1037, 53, -832, -495, -7, -207, -305, -170, -192, -207, -141, -158, -175, -126, -119, -119, -70, -53, -73, -63, -41, -39, -34, -19, -14, -9, -19, -53, -68, -73, -97, -109, -129, -178, -207, -212, -236, -270, -266, -253, -256, -253, -249, -249, -244, -239, -227, -212, -229, -239, -205, -205, -241, -217, -195, -239])
('ECG', 1751568674481509198, [-236, -195, -212, -244, -234, -224, -231, -234, -241, -261, -258, -219, -190, -195, -214, -229, -229, -224, -236, -234, -224, -234, -229, -197, -207, -227, -200, -183, -187, -183, -195, -219, -202, -187, -217, -214, -197, -229, -280, -307, -148, 380, 1040, 1169, 195, -930, -695, -56, -178, -295, -136, -156, -217, -163, -156, -151, -109, -119, -126, -83, -51, -41, -34, -26, -21, -29, -21, -9, -17, -34, -56, -73, -78])
('ECG', 1751568675043091260, [-90, -129, -166, -183, -195, -224, -263, -275, -263, -253, -263, -261, -253, -263, -249, -224, -234, -239, -229, -239, -231, -202, -209, -246, -253, -239, -244, -261, -244, -207, -222, -244, -231, -229, -246, -253, -244, -231, -229, -246, -249, -229, -236, -266, -253, -212, -200, -202, -214, -236, -231, -217, -217, -200, -170, -161, -158, -173, -197, -209, -202, -200, -209, -219, -209, -224, -251, -24, 571, 1132, 986, -119, -925])
('ECG', 1751568675604658064, [-458, -19, -217, -222, -90, -148, -175, -117, -109, -107, -70, -51, -48, -48, -39, -19, -9, -4, 7, 19, 17, -4, -34, -61, -85, -95, -92, -109, -139, -161, -195, -234, -249, -236, -239, -263, -275, -268, -261, -249, -246, -251, -251, -236, -231, -239, -244, -234, -227, -229, -217, -207, -219, -227, -214, -209, -209, -212, -217, -219, -214, -214, -214, -209, -209, -212, -207, -200, -195, -197, -197, -192, -185])
('ECG', 1751568676166224868, [-170, -153, -146, -151, -166, -187, -197, -192, -187, -190, -187, -197, -261, -310, -63, 583, 1201, 1064, -104, -998, -544, -65, -239, -241, -104, -144, -151, -97, -107, -122, -90, -65, -56, -41, -43, -39, -12, -2, 0, 17, 19, 4, -9, -29, -46, -51, -68, -102, -124, -136, -166, -200, -227, -241, -249, -251, -253, -261, -258, -246, -244, -249, -244, -236, -231, -234, -239, -234, -224, -231, -239, -227, -222])
('ECG', 1751568676727786588, [-224, -229, -236, -236, -229, -229, -234, -229, -219, -214, -222, -227, -227, -222, -214, -214, -227, -227, -202, -180, -178, -175, -168, -183, -205, -212, -214, -217, -222, -217, -222, -273, -327, -112, 522, 1176, 1108, -46, -1010, -590, -75, -244, -263, -122, -158, -175, -119, -129, -141, -114, -95, -85, -70, -56, -48, -46, -29, -12, -9, -17, -19, -21, -36, -65, -95, -114, -131, -146, -166, -205, -231, -244, -256])
