('ECG', 1746699975263499000, [6616, 7243, 7650, 7623, 7723, 7852, 7818, 7788, 7796, 7735, 7669, 7655, 7693, 7708, 7299, 6421, 6005, 6516, 6966, 6832, 6710, 6696, 6547, 6401, 6328, 6212, 6090, 6007, 5893, 5757, 5657, 5572, 5474, 5372, 5272, 5175, 5070, 4951, 4822, 4681, 4530, 4379, 4221, 4046, 3871, 3715, 3567, 3440, 3333, 3221, 3119, 3034, 2939, 2844, 2759, 2674, 2581, 2486, 2399, 2311, 2216, 2121, 2039, 1949, 1854, 1766, 1686, 1601, 1513, 1430, 1352, 1275, 1192])
('ECG', 1746699975825192962, [1114, 1053, 997, 936, 873, 805, 722, 625, 532, 472, 418, 355, 294, 236, 182, 184, 323, 413, -19, -895, -1182, -525, -75, -197, -221, -163, -240, -304, -309, -347, -394, -416, -440, -467, -486, -506, -523, -535, -549, -566, -598, -642, -693, -751, -820, -888, -963, -1053, -1146, -1219, -1275, -1316, -1348, -1367, -1379, -1386, -1394, -1399, -1403, -1413, -1428, -1435, -1445, -1462, -1476, -1486, -1501, -1525, -1547, -1542, -1535, -1559, -1574])
('ECG', 1746699976386912356, [-1564, -1574, -1598, -1596, -1593, -1608, -1620, -1615, -1591, -1581, -1591, -1593, -1613, -1657, -1676, -1664, -1661, -1674, -1671, -1661, -1654, -1545, -1287, -1226, -1810, -2613, -2525, -1751, -1494, -1603, -1491, -1406, -1457, -1457, -1423, -1416, -1394, -1365, -1340, -1279, -1199, -1148, -1126, -1092, -1058, -1051, -1043, -1051, -1092, -1124, -1124, -1155, -1214, -1267, -1323, -1372, -1391, -1389, -1391, -1396, -1372, -1340, -1313, -1299, -1296, -1284, -1270, -1262, -1257, -1250, -1240, -1240, -1243])
('ECG', 1746699976948631750, [-1226, -1219, -1231, -1231, -1204, -1180, -1182, -1202, -1194, -1160, -1146, -1170, -1182, -1160, -1148, -1133, -1097, -1102, -1131, -1138, -1158, -1165, -1143, -1136, -1150, -1136, -1114, -1097, -961, -800, -1073, -1795, -2104, -1515, -958, -973, -973, -858, -883, -905, -856, -854, -868, -844, -820, -815, -807, -785, -764, -747, -729, -710, -700, -717, -737, -744, -768, -807, -849, -897, -941, -978, -1024, -1051, -1063, -1068, -1058, -1039, -1029, -1029, -1019, -1004, -997])
('ECG', 1746699977510320626, [-995, -992, -983, -975, -983, -985, -973, -968, -973, -978, -975, -970, -968, -968, -963, -968, -985, -975, -946, -939, -929, -917, -924, -944, -966, -975, -970, -975, -970, -951, -946, -941, -851, -647, -661, -1253, -1914, -1715, -1024, -839, -878, -722, -674, -727, -705, -678, -688, -683, -671, -656, -639, -622, -598, -583, -586, -569, -549, -554, -564, -581, -613, -644, -686, -732, -783, -841, -883, -893, -912, -944, -941, -910, -893])
('ECG', 1746699978072040020, [-880, -844, -822, -820, -802, -783, -793, -790, -756, -747, -759, -749, -734, -729, -717, -710, -717, -712, -708, -715, -698, -676, -671, -649, -630, -637, -659, -681, -671, -649, -652, -664, -656, -649, -644, -515, -289, -389, -1051, -1596, -1248, -613, -503, -515, -389, -386, -423, -384, -369, -379, -360, -333, -328, -328, -311, -282, -257, -236, -211, -187, -184, -206, -228, -238, -262, -333, -396, -401, -418, -472, -484, -435, -391])
('ECG', 1746699978633728898, [-386, -394, -411, -394, -345, -347, -384, -382, -340, -282, -248, -248, -253, -255, -265, -282, -282, -270, -279, -294, -294, -274, -238, -248, -284, -260, -221, -243, -294, -333, -326, -309, -318, -321, -326, -330, -318, -233, -53, -80, -576, -1146, -1041, -469, -287, -294, -133, -121, -218, -194, -155, -158, -128, -107, -124, -121, -90, -80, -77, -58, -38, -41, -46, -43, -63, -107, -143, -192, -260, -316, -357, -396, -420])
('ECG', 1746699979195448292, [-418, -428, -450, -442, -420, -425, -442, -450, -447, -437, -435, -442, -452, -457, -462, -481, -484, -457, -442, -464, -491, -498, -486, -469, -467, -464, -442, -430, -440, -464, -501, -508, -481, -472, -474, -457, -455, -445, -326, -175, -364, -1009, -1440, -1046, -455, -347, -352, -238, -214, -260, -282, -245, -145, -116, -155, -133, -87, -80, -63, -21, 12, 34, 55, 53, 24, 2, -2, -29, -92, -165, -238, -284, -304])
('ECG', 1746699979757137168, [-328, -355, -357, -350, -352, -347, -330, -309, -282, -262, -257, -253, -255, -255, -253, -257, -270, -277, -279, -287, -289, -287, -299, -306, -289, -262, -231, -216, -187, -153, -177, -209, -211, -223, -231, -231, -233, -223, -209, -209, -163, 34, 197, -72, -744, -1021, -510, -109, -165, -116, 7, -2, -19, 4, 14, 24, 43, 53, 68, 77, 75, 109, 158, 177, 182, 187, 172, 153, 128, 97, 60, 0, -82])
('ECG', 1746699980318856562, [-143, -180, -218, -260, -267, -253, -262, -277, -270, -260, -257, -250, -248, -255, -262, -248, -226, -236, -253, -248, -255, -272, -262, -248, -262, -274, -267, -270, -272, -267, -260, -236, -236, -260, -282, -309, -328, -318, -291, -289, -318, -343, -330, -206, -12, -90, -618, -1068, -798, -287, -226, -255, -133, -114, -145, -116, -104, -119, -107, -92, -99, -92, -55, -26, -21, 4, 46, 36, 21, 26, 24, 2, -48])
('ECG', 1746699980880545438, [-97, -128, -182, -245, -265, -248, -233, -245, -248, -236, -255, -265, -218, -182, -177, -165, -141, -136, -138, -131, -124, -107, -94, -111, -128, -128, -116, -109, -111, -94, -92, -119, -119, -75, -63, -90, -109, -114, -133, -153, -145, -136, -138, -155, -180, -145, 0, 104, -58, -486, -734, -437, -107, -119, -104, -9, -21, -46, -29, -36, -38, -14, -12, -21, -4, 9, 0, 14, 58, 58, 41, 48, 26])
('ECG', 1746699981442264832, [-14, -29, -70, -143, -172, -197, -240, -233, -216, -250, -262, -236, -238, -253, -231, -216, -238, -240, -218, -218, -223, -206, -189, -197, -204, -194, -192, -189, -182, -194, -206, -199, -192, -187, -194, -192, -163, -143, -155, -192, -221, -216, -206, -204, -204, -216, -226, -221, -143, -38, -194, -608, -756, -430, -141, -124, -90, -17, -38, -65, -41, -9, -4, -17, -14, -4, 2, 9, 26, 48, 65, 72, 77])
('ECG', 1746699982003979142, [63, 26, 4, -2, -36, -80, -126, -158, -170, -197, -206, -184, -177, -182, -187, -197, -180, -150, -148, -155, -145, -141, -133, -126, -126, -126, -116, -116, -121, -121, -121, -124, -133, -145, -143, -131, -133, -133, -128, -136, -143, -128, -102, -90, -87, -97, -114, -109, -114, -141, -150, -148, -150, -138, -136, -158, -148, -21, 102, -97, -647, -924, -513, -75, -80, -97, 7, 2, -29, -4, 7, 0, 7])
('ECG', 1746699982565673104, [14, 19, 31, 34, 38, 68, 87, 90, 92, 92, 80, 60, 26, -19, -51, -82, -141, -182, -180, -197, -233, -231, -199, -184, -189, -177, -143, -126, -165, -189, -150, -141, -163, -141, -116, -109, -92, -80, -77, -68, -60, -51, -17, 9, 12, 9, 0, 4, 43, 65, 53, 51, 55, 63, 72, 72, 65, 68, 75, 97, 124, 109, 92, 99, 75, 38, 53, 70, 53, 43, 43, 48, 172])
('ECG', 1746699983127392498, [352, 204, -384, -790, -447, 80, 155, 109, 182, 194, 167, 177, 180, 175, 172, 175, 192, 201, 214, 221, 216, 238, 267, 270, 272, 279, 250, 214, 180, 126, 53, -4, -24, -36, -65, -65, -21, -12, -46, -48, -14, 2, 2, 0, 4, 26, 58, 68, 53, 65, 90, 72, 58, 97, 128, 97, 82, 126, 153, 143, 143, 163, 182, 201, 209, 209, 216, 233, 223, 209, 253, 287, 257])
('ECG', 1746699983689081374, [231, 250, 289, 301, 289, 282, 289, 287, 238, 211, 243, 238, 189, 187, 204, 180, 248, 481, 476, -68, -591, -357, 172, 238, 189, 316, 338, 291, 311, 326, 306, 318, 335, 306, 289, 328, 352, 350, 360, 364, 362, 372, 364, 318, 279, 260, 204, 145, 114, 63, 17, -9, -38, -46, -17, -26, -65, -41, -12, -41, -48, -26, -17, -12, -17, -31, -29, -26, -43, -38, -34, -55, -65])
('ECG', 1746699984250800768, [-63, -70, -60, -63, -75, -82, -90, -87, -97, -116, -104, -99, -107, -107, -119, -136, -116, -92, -82, -65, -72, -104, -124, -143, -165, -163, -141, -138, -165, -184, -177, -94, 82, 124, -282, -839, -783, -240, -55, -124, -12, 41, -21, 0, 34, 4, 19, 48, 24, 31, 72, 63, 68, 116, 119, 99, 111, 107, 80, 60, 19, -31, -70, -104, -141, -184, -214, -216, -221, -228, -238, -243, -223])
('ECG', 1746699984812489644, [-201, -194, -184, -184, -180, -170, -182, -180, -167, -172, -170, -158, -170, -177, -165, -172, -187, -172, -155, -170, -184, -165, -160, -189, -175, -153, -175, -180, -145, -141, -175, -184, -150, -114, -107, -107, -107, -128, -175, -192, -167, -150, -167, -189, -192, -192, -126, 80, 131, -294, -815, -732, -260, -104, -126, -29, 7, -29, -4, 26, 0, -19, 7, 38, 36, 24, 48, 87, 90, 94, 124, 114, 90])
('ECG', 1746699985374209040, [80, 55, 9, -29, -68, -124, -155, -170, -211, -248, -245, -238, -236, -226, -221, -214, -194, -182, -180, -184, -201, -197, -163, -160, -180, -175, -175, -180, -172, -180, -189, -180, -177, -189, -189, -172, -165, -167, -177, -187, -175, -165, -177, -175, -167, -172, -143, -111, -126, -150, -143, -119, -131, -167, -177, -180, -187, -189, -201, -199, -72, 131, 80, -391, -824, -649, -199, -104, -119, -7, 12, -14, 7])
('ECG', 1746699985935897916, [0, -2, 14, 19, 38, 63, 72, 68, 65, 97, 136, 128, 124, 124, 97, 70, 24, -19, -29, -82, -175, -199, -187, -226, -240, -192, -189, -211, -189, -175, -187, -180, -163, -160, -148, -126, -141, -155, -141, -136, -148, -148, -136, -141, -150, -145, -141, -136, -119, -119, -141, -133, -119, -138, -155, -126, -104, -136, -148, -85, -26, -55, -102, -104, -124, -155, -148, -124, -121, -136, -153, -170, -145])
('ECG', 1746699986497617310, [31, 199, -48, -639, -841, -382, -58, -109, -34, 70, -7, -36, 60, 94, 21, 2, 63, 99, 87, 90, 116, 133, 150, 170, 189, 187, 150, 116, 97, 65, 21, -43, -107, -131, -148, -187, -201, -184, -197, -216, -199, -182, -175, -165, -167, -182, -172, -172, -209, -209, -187, -218, -233, -197, -204, -245, -253, -257, -265, -265, -289, -313, -311, -326, -355, -382, -406, -423, -423, -411, -399, -384, -379])
('ECG', 1746699987059316360, [-384, -399, -420, -437, -435, -420, -423, -440, -455, -442, -391, -231, -114, -382, -946, -1099, -615, -272, -304, -240, -150, -182, -184, -153, -165, -165, -145, -138, -124, -102, -92, -75, -65, -68, -53, -34, -36, -41, -70, -119, -131, -133, -194, -277, -313, -313, -311, -328, -326, -299, -287, -291, -287, -255, -233, -231, -216, -199, -184, -165, -182, -218, -197, -148, -153, -189, -187, -165, -158, -163, -165, -163, -160])
('ECG', 1746699987621025580, [-165, -172, -160, -145, -158, -175, -160, -138, -131, -116, -102, -114, -128, -141, -155, -155, -155, -165, -165, -160, -177, -177, -29, 155, -14, -605, -961, -559, -68, -60, -72, 46, 29, -21, 17, 46, 24, 36, 70, 60, 53, 85, 109, 114, 133, 163, 165, 153, 143, 121, 80, 43, 9, -43, -116, -177, -209, -221, -231, -236, -231, -238, -236, -201, -197, -218, -194, -167, -177, -180, -167, -182, -192])
('ECG', 1746699988182744974, [-172, -167, -189, -192, -182, -182, -175, -167, -184, -194, -184, -182, -197, -194, -172, -165, -177, -184, -180, -167, -145, -124, -131, -143, -150, -184, -216, -204, -172, -175, -199, -209, -175, -24, 136, -63, -661, -997, -596, -136, -111, -85, 26, 0, -34, 7, 31, 21, 14, 24, 43, 65, 82, 72, 80, 119, 136, 133, 138, 114, 70, 43, 26, -21, -90, -133, -163, -211, -253, -248, -233, -240, -245])
('ECG', 1746699988744464370, [-233, -218, -201, -192, -187, -187, -201, -204, -180, -158, -165, -175, -170, -177, -187, -177, -172, -184, -189, -180, -177, -184, -192, -194, -177, -167, -184, -204, -194, -180, -177, -165, -158, -182, -204, -214, -223, -233, -233, -240, -265, -270, -233, -99, 87, -29, -637, -1112, -781, -228, -150, -175, -60, -48, -72, -46, -58, -70, -21, 12, 7, 14, 36, 60, 107, 170, 180, 150, 167, 180, 141, 116, 107])
('ECG', 1746699989306153246, [60, -7, -55, -90, -126, -153, -150, -136, -143, -141, -116, -121, -121, -80, -48, -70, -87, -60, -48, -70, -82, -80, -75, -58, -48, -58, -70, -68, -55, -63, -90, -92, -68, -55, -77, -94, -70, -46, -48, -38, -26, -41, -60, -75, -94, -109, -99, -97, -107, -92, -85, -51, 124, 228, -160, -829, -897, -291, 7, -46, 46, 97, 43, 68, 94, 72, 72, 94, 102, 104, 126, 145, 163])
('ECG', 1746699989867872640, [167, 165, 180, 199, 177, 143, 119, 99, 58, 4, -38, -104, -163, -172, -182, -206, -194, -170, -180, -184, -165, -148, -150, -143, -126, -126, -138, -141, -136, -131, -124, -107, -119, -145, -128, -119, -141, -148, -141, -133, -111, -97, -128, -145, -104, -85, -80, -60, -77, -94, -104, -138, -145, -124, -119, -114, -104, -102, -60, 85, 177, -131, -744, -890, -352, -4, -53, 7, 97, 80, 87, 111, 104])
('ECG', 1746699990429561516, [104, 121, 116, 107, 143, 165, 170, 209, 218, 206, 231, 238, 187, 126, 111, 116, 65, -19, -63, -75, -99, -153, -180, -145, -119, -128, -124, -128, -138, -109, -92, -97, -87, -94, -116, -92, -55, -63, -99, -119, -102, -102, -124, -114, -114, -141, -114, -65, -97, -131, -97, -87, -102, -77, -43, -31, -43, -87, -143, -141, -94, -104, -138, -133, -121, -94, 12, 175, 97, -437, -934, -700, -155])
('ECG', 1746699990991280910, [-34, -68, 38, 72, 36, 41, 51, 58, 68, 38, 14, 53, 75, 41, 34, 60, 48, 24, 12, -21, -70, -121, -167, -221, -299, -384, -445, -479, -496, -508, -523, -532, -523, -508, -498, -491, -484, -474, -462, -455, -457, -462, -447, -423, -411, -408, -408, -411, -408, -403, -389, -374, -382, -379, -357, -343, -340, -338, -326, -304, -279, -260, -262, -279, -282, -294, -309, -282, -279, -299, -274, -253, -262])
('ECG', 1746699991552969788, [-182, -2, -58, -586, -1082, -839, -223, -63, -133, -41, 12, -29, -17, 26, 38, 43, 51, 68, 82, 82, 99, 143, 170, 172, 182, 194, 182, 150, 121, 99, 48, -41, -92, -104, -148, -184, -177, -172, -184, -184, -180, -172, -155, -150, -153, -141, -119, -109, -111, -121, -116, -111, -114, -107, -111, -128, -114, -94, -114, -128, -111, -94, -97, -114, -136, -131, -102, -97, -97, -63, -48, -80, -121])
('ECG', 1746699992114689182, [-136, -128, -126, -119, -114, -131, -136, -94, 51, 218, 46, -591, -1009, -601, -46, 4, -17, 92, 102, 60, 87, 109, 94, 82, 102, 138, 155, 158, 182, 228, 240, 223, 233, 233, 199, 175, 165, 131, 68, 2, -58, -102, -131, -155, -170, -175, -180, -172, -158, -150, -145, -133, -119, -104, -99, -109, -111, -111, -107, -104, -116, -128, -124, -111, -111, -107, -97, -102, -126, -124, -116, -133, -133])
('ECG', 1746699992676408576, [-116, -131, -131, -87, -60, -55, -60, -82, -121, -153, -160, -148, -121, -104, -111, -124, -114, 29, 226, 77, -583, -1080, -705, -70, 29, -43, 51, 82, 41, 65, 85, 68, 68, 94, 107, 114, 133, 153, 160, 184, 209, 209, 197, 165, 124, 99, 82, 31, -38, -92, -128, -170, -209, -236, -248, -236, -206, -189, -192, -197, -180, -160, -163, -172, -167, -153, -145, -155, -158, -155, -160, -167, -172])
('ECG', 1746699993238112712, [-165, -163, -163, -160, -160, -160, -167, -172, -163, -160, -165, -160, -160, -165, -141, -97, -87, -116, -153, -172, -170, -167, -163, -163, -180, -182, -153, -58, 133, 158, -326, -1007, -990, -299, 17, -80, -7, 63, 12, 26, 68, 51, 36, 68, 97, 87, 87, 121, 138, 136, 148, 184, 187, 148, 121, 102, 58, 14, -31, -94, -143, -184, -228, -233, -226, -245, -250, -228, -206, -199, -206, -201, -180])
('ECG', 1746699993799816846, [-172, -184, -184, -160, -155, -175, -177, -175, -187, -189, -175, -177, -192, -187, -170, -175, -189, -189, -180, -172, -180, -194, -192, -167, -145, -141, -143, -131, -133, -163, -194, -199, -189, -187, -184, -184, -189, -175, -72, 126, 102, -479, -1126, -936, -253, -68, -133, -29, 2, -38, -9, 2, -21, -9, 12, 19, 26, 31, 43, 77, 109, 111, 97, 82, 70, 46, 9, -19, -60, -114, -155, -214, -272])
('ECG', 1746699994361536240, [-296, -301, -313, -318, -311, -299, -289, -265, -245, -267, -289, -257, -231, -226, -236, -257, -248, -221, -245, -274, -255, -243, -245, -223, -221, -253, -250, -228, -231, -236, -226, -238, -248, -209, -165, -177, -204, -192, -189, -231, -248, -226, -209, -231, -248, -221, -180, -80, 94, 24, -564, -1158, -917, -236, -60, -119, -14, 2, -48, -17, 9, -4, 0, 21, 38, 55, 75, 87, 92, 90, 109, 128, 124])
('ECG', 1746699994923225116, [94, 55, 31, 4, -36, -82, -141, -187, -214, -243, -265, -255, -253, -267, -262, -243, -233, -221, -209, -201, -204, -211, -211, -201, -209, -226, -231, -228, -228, -236, -245, -248, -240, -233, -245, -248, -223, -228, -243, -231, -248, -272, -248, -223, -216, -209, -216, -248, -277, -299, -299, -296, -309, -323, -333, -321, -233, -29, 38, -391, -1070, -1119, -486, -184, -296, -245, -163, -211, -218, -182, -184, -189, -187])
('ECG', 1746699995484939426, [-180, -155, -143, -143, -133, -102, -75, -77, -92, -111, -138, -175, -204, -228, -291, -382, -406, -406, -447, -476, -474, -481, -491, -484, -474, -467, -455, -469, -481, -476, -464, -374, -318, -379, -377, -313, -313, -347, -364, -377, -367, -345, -333, -345, -357, -340, -326, -333, -333, -326, -328, -328, -306, -284, -274, -296, -335, -347, -355, -372, -374, -379, -391, -384, -294, -60, 38, -420, -1153, -1180, -530, -272, -362])
('ECG', 1746699996046633388, [-250, -148, -177, -177, -172, -189, -172, -160, -170, -148, -90, -60, -77, -70, -43, -46, -65, -75, -90, -116, -136, -165, -236, -304, -350, -394, -408, -406, -433, -457, -437, -416, -418, -408, -386, -389, -386, -374, -372, -372, -372, -367, -362, -369, -367, -367, -379, -372, -355, -352, -357, -355, -343, -338, -350, -347, -321, -306, -299, -289, -287, -318, -352, -352, -343, -333, -316, -316, -323, -326, -240, -24, 0])
('ECG', 1746699996608322264, [-508, -1109, -951, -345, -204, -267, -143, -85, -128, -133, -55, 9, -38, -60, 26, 65, 21, 26, 75, 87, 92, 116, 131, 111, 72, 43, 7, -41, -68, -114, -184, -204, -201, -231, -253, -257, -262, -262, -233, -192, -192, -218, -228, -189, -150, -167, -197, -197, -189, -180, -175, -177, -175, -182, -199, -201, -209, -209, -177, -163, -189, -197, -172, -155, -160, -148, -133, -150, -194, -218, -211, -211, -211])
('ECG', 1746699997170041658, [-197, -192, -214, -180, 29, 192, -107, -805, -1043, -469, -63, -133, -87, 21, -14, -34, 0, 0, -2, 14, 21, 34, 55, 72, 97, 128, 143, 145, 148, 128, 92, 68, 60, 34, -38, -111, -163, -206, -238, -255, -265, -267, -260, -233, -206, -214, -223, -209, -197, -206, -214, -189, -167, -177, -184, -177, -172, -175, -182, -189, -192, -192, -187, -194, -192, -172, -177, -197, -175, -138, -138, -143, -136])
('ECG', 1746699997731730534, [-136, -160, -194, -204, -187, -187, -194, -187, -187, -187, -82, 143, 163, -318, -946, -900, -279, -29, -99, -26, 34, -4, 0, 26, 12, 19, 46, 41, 55, 97, 119, 126, 141, 163, 170, 150, 133, 141, 124, 63, 4, -46, -119, -175, -206, -238, -253, -262, -257, -231, -226, -233, -216, -209, -214, -199, -177, -175, -184, -182, -167, -165, -175, -172, -167, -172, -187, -184, -167, -170, -184, -180, -160])
('ECG', 1746699998293449928, [-175, -189, -184, -177, -155, -131, -126, -121, -124, -133, -150, -180, -189, -189, -192, -175, -163, -182, -170, 2, 216, 77, -554, -1043, -681, -92, -31, -85, 9, 17, -14, 17, 34, 36, 53, 65, 68, 80, 102, 114, 133, 167, 189, 184, 172, 143, 126, 124, 80, 2, -65, -131, -192, -226, -245, -262, -255, -236, -238, -236, -221, -216, -211, -204, -201, -197, -184, -170, -172, -182, -180, -180, -187])
('ECG', 1746699998855138806, [-189, -187, -175, -167, -172, -175, -180, -180, -177, -184, -192, -197, -182, -158, -165, -177, -155, -126, -124, -136, -145, -158, -180, -192, -187, -189, -197, -175, -160, -197, -119, 131, 197, -233, -905, -983, -357, -36, -116, -31, 51, -9, -26, 0, 2, 7, 26, 38, 65, 85, 104, 150, 177, 172, 182, 192, 177, 153, 136, 111, 65, 21, -17, -77, -124, -141, -153, -141, -97, -82, -65, -12, -7])
('ECG', 1746699999416848028, [-38, -38, -29, -36, -51, -72, -77, -75, -90, -80, -63, -87, -109, -111, -136, -163, -155, -150, -170, -184, -182, -177, -165, -160, -172, -180, -170, -175, -204, -221, -214, -201, -199, -199, -189, -199, -238, -243, -216, -221, -245, -240, -238, -255, -126, 175, 199, -382, -1053, -922, -270, -72, -143, -31, 26, -19, -2, 43, 58, 77, 114, 141, 153, 163, 184, 228, 272, 282, 274, 284, 296, 282, 223])
('ECG', 1746699999978547076, [158, 104, 31, -63, -133, -170, -216, -270, -277, -274, -284, -270, -267, -291, -272, -238, -245, -265, -279, -265, -240, -248, -248, -231, -240, -255, -245, -243, -250, -238, -221, -226, -248, -243, -226, -236, -250, -233, -218, -226, -214, -206, -223, -216, -189, -170, -160, -170, -199, -218, -218, -223, -226, -201, -201, -228, -216, -75, 145, 72, -540, -1082, -768, -165, -90, -126, 0, 21, -19, 4, 29, 19, 26])
('ECG', 1746700000540235952, [51, 58, 55, 70, 97, 114, 133, 158, 163, 150, 145, 136, 82, 31, 0, -58, -116, -153, -180, -204, -231, -238, -233, -231, -206, -187, -197, -192, -175, -184, -187, -160, -145, -153, -150, -141, -153, -160, -150, -158, -163, -150, -158, -177, -170, -145, -155, -175, -163, -155, -170, -163, -153, -160, -163, -155, -148, -143, -131, -109, -107, -131, -150, -167, -165, -158, -163, -172, -175, -177, -158, 7, 223])
('ECG', 1746700001101929916, [65, -603, -1063, -644, -68, -34, -70, 41, 55, 14, 21, 34, 58, 77, 51, 36, 85, 136, 141, 136, 160, 189, 197, 180, 165, 150, 119, 65, 17, -48, -138, -189, -199, -233, -260, -248, -238, -245, -245, -231, -214, -204, -204, -209, -189, -163, -170, -192, -184, -163, -160, -175, -180, -172, -170, -177, -184, -184, -170, -165, -180, -184, -170, -160, -167, -175, -170, -163, -163, -172, -172, -155, -136])
('ECG', 1746700001663644222, [-119, -94, -90, -133, -182, -184, -167, -170, -172, -160, -158, -172, -128, 65, 199, -109, -783, -1039, -476, -9, -55, -43, 51, 14, -4, 38, 43, 24, 43, 68, 75, 94, 114, 126, 145, 167, 170, 172, 180, 167, 131, 90, 48, -4, -80, -148, -192, -231, -265, -270, -265, -262, -262, -250, -231, -218, -216, -209, -199, -192, -184, -184, -192, -199, -187, -172, -172, -180, -180, -180, -180, -187, -199])
('ECG', 1746700002225333100, [-194, -182, -175, -172, -184, -192, -180, -177, -180, -172, -165, -172, -172, -160, -148, -133, -111, -102, -128, -170, -199, -177, -155, -187, -197, -163, -163, -160, -19, 182, 43, -603, -1094, -710, -99, -31, -87, 14, 26, -2, 26, 41, 36, 43, 51, 63, 92, 116, 111, 109, 143, 182, 194, 189, 165, 126, 97, 63, 7, -58, -128, -197, -228, -243, -257, -257, -262, -274, -253, -236, -236, -218, -211])
('ECG', 1746700002787042322, [-223, -201, -177, -189, -194, -184, -184, -180, -184, -194, -192, -194, -194, -180, -187, -197, -177, -177, -199, -192, -175, -184, -199, -184, -165, -170, -175, -177, -175, -160, -141, -124, -126, -138, -145, -165, -182, -180, -175, -177, -187, -189, -177, -121, 68, 194, -148, -868, -1087, -445, 7, -87, -60, 51, 7, -4, 41, 36, 34, 55, 55, 60, 87, 107, 116, 141, 175, 189, 175, 155, 136, 107, 75])
('ECG', 1746700003348741370, [34, -26, -92, -145, -194, -240, -260, -253, -262, -282, -270, -243, -226, -221, -223, -216, -194, -192, -204, -192, -184, -201, -199, -184, -194, -201, -182, -180, -197, -192, -182, -192, -201, -192, -182, -192, -189, -177, -180, -182, -172, -165, -180, -184, -163, -141, -121, -119, -133, -158, -189, -194, -184, -187, -189, -172, -160, -167, -65, 172, 141, -464, -1097, -900, -211, -4, -92, -7, 51, 2, 0, 31, 29])
('ECG', 1746700003910430246, [34, 51, 55, 72, 92, 102, 126, 148, 163, 180, 160, 119, 107, 99, 65, 9, -68, -138, -167, -201, -262, -296, -287, -272, -282, -274, -240, -231, -233, -221, -214, -214, -209, -201, -194, -204, -209, -201, -201, -211, -209, -201, -204, -211, -214, -209, -201, -201, -201, -199, -206, -211, -199, -201, -214, -211, -194, -187, -170, -143, -148, -182, -206, -218, -226, -221, -209, -209, -209, -211, -180, -4, 187])
('ECG', 1746700004472124210, [-36, -773, -1204, -698, -128, -107, -92, 19, -12, -48, -17, 0, 7, 12, 12, 21, 48, 77, 92, 90, 102, 143, 158, 133, 116, 97, 51, 2, -43, -116, -187, -218, -248, -279, -294, -306, -316, -304, -287, -277, -270, -245, -238, -250, -243, -223, -228, -238, -228, -216, -218, -231, -228, -221, -223, -228, -226, -221, -216, -223, -228, -226, -223, -216, -209, -214, -209, -189, -172, -158, -163, -187, -199])
('ECG', 1746700005033838516, [-209, -214, -206, -211, -218, -211, -194, -148, -4, 128, -131, -841, -1167, -601, -85, -97, -75, 29, 9, -17, 12, 21, 24, 34, 38, 43, 60, 94, 121, 116, 128, 167, 165, 136, 124, 92, 48, 19, -29, -94, -148, -194, -233, -245, -245, -262, -287, -272, -236, -228, -231, -209, -192, -199, -206, -197, -189, -187, -184, -189, -187, -172, -180, -197, -192, -184, -187, -192, -197, -197, -170, -167, -194])
('ECG', 1746700005595527394, [-182, -163, -192, -187, -145, -145, -143, -121, -128, -148, -167, -187, -180, -165, -177, -189, -182, -155, -63, 136, 148, -367, -1029, -951, -272, -2, -87, -4, 58, 7, 12, 43, 29, 34, 72, 85, 80, 99, 109, 116, 148, 177, 175, 170, 172, 143, 104, 80, 24, -55, -116, -163, -209, -243, -255, -253, -250, -255, -257, -253, -240, -226, -214, -199, -187, -189, -189, -187, -189, -182, -172, -194, -204])
('ECG', 1746700006157246788, [-182, -177, -192, -189, -187, -189, -184, -180, -184, -189, -192, -192, -197, -184, -148, -133, -138, -131, -128, -138, -153, -192, -214, -197, -175, -170, -165, -160, -99, 104, 201, -240, -992, -1099, -401, 9, -77, -38, 58, 29, 19, 46, 46, 48, 51, 48, 70, 99, 111, 128, 160, 182, 180, 175, 180, 158, 104, 65, 38, -21, -111, -177, -209, -236, -260, -267, -260, -267, -265, -240, -223, -228, -223])
('ECG', 1746700006718935664, [-204, -194, -197, -192, -197, -201, -187, -175, -187, -197, -180, -175, -187, -194, -187, -187, -197, -197, -182, -180, -187, -189, -197, -187, -153, -133, -136, -133, -143, -177, -197, -182, -182, -197, -189, -184, -194, -145, 31, 187, -43, -751, -1167, -644, -51, -48, -70, 43, 26, -4, 46, 60, 38, 38, 55, 65, 80, 107, 138, 150, 153, 172, 182, 172, 158, 126, 87, 41, -21, -87, -143, -194, -233])
('ECG', 1746700007280655058, [-255, -279, -296, -287, -272, -262, -243, -226, -221, -214, -206, -204, -199, -199, -206, -218, -204, -175, -187, -209, -194, -189, -218, -218, -187, -175, -192, -211, -209, -206, -204, -197, -184, -163, -145, -150, -158, -160, -184, -218, -211, -194, -204, -206, -204, -187, -72, 138, 126, -447, -1121, -958, -238, -7, -99, 0, 55, -9, -4, 31, 36, 43, 51, 53, 75, 94, 111, 138, 155, 163, 170, 165, 158])
('ECG', 1746700007842343934, [143, 111, 60, -2, -68, -128, -182, -228, -265, -279, -274, -274, -277, -270, -255, -243, -228, -211, -204, -218, -216, -187, -177, -201, -206, -189, -192, -199, -199, -199, -192, -189, -189, -192, -192, -201, -214, -209, -197, -184, -167, -163, -148, -133, -145, -175, -204, -206, -197, -199, -201, -182, -175, -177, -53, 175, 77, -605, -1187, -834, -141, -17, -90, 12, 36, 0, 17, 31, 36, 53, 53, 53, 75])
('ECG', 1746700008404032810, [104, 126, 141, 153, 172, 189, 182, 153, 131, 104, 55, -2, -70, -138, -197, -238, -257, -262, -267, -277, -274, -274, -270, -243, -223, -218, -206, -211, -218, -204, -182, -172, -199, -214, -197, -197, -211, -192, -177, -201, -204, -187, -189, -197, -197, -199, -192, -172, -163, -153, -153, -160, -160, -182, -214, -206, -197, -201, -199, -201, -199, -126, 75, 189, -204, -970, -1136, -457, -46, -121, -58, 31, -21])
('ECG', 1746700008965721688, [-43, 7, 19, -2, 12, 43, 48, 48, 70, 104, 128, 136, 150, 158, 136, 104, 90, 63, -2, -70, -131, -192, -243, -289, -311, -309, -309, -309, -301, -287, -277, -270, -265, -250, -233, -231, -236, -231, -236, -253, -243, -218, -228, -253, -248, -233, -240, -245, -233, -226, -243, -243, -218, -211, -223, -211, -184, -189, -221, -243, -231, -226, -250, -253, -240, -228, -197, -136, 34, 94, -386, -1119, -1112])
('ECG', 1746700009527430910, [-408, -104, -153, -34, 9, -48, -14, 17, -4, -4, 17, 19, 26, 70, 109, 107, 111, 133, 138, 138, 138, 119, 68, 14, -9, -60, -148, -209, -238, -267, -291, -291, -287, -287, -287, -279, -270, -265, -267, -255, -240, -248, -250, -238, -236, -243, -255, -265, -279, -282, -277, -284, -294, -289, -296, -313, -316, -309, -306, -304, -289, -270, -272, -294, -318, -347, -374, -364, -352, -362, -372, -379, -389])
('ECG', 1746700010089129958, [-296, -51, -12, -528, -1170, -1070, -418, -192, -277, -197, -141, -177, -160, -121, -124, -114, -90, -85, -75, -46, -34, -31, -12, 0, -2, -2, -12, -43, -75, -104, -158, -226, -291, -345, -379, -403, -430, -442, -433, -425, -428, -416, -391, -379, -374, -364, -360, -360, -362, -350, -340, -350, -352, -343, -338, -338, -330, -323, -323, -318, -309, -313, -323, -311, -291, -277, -257, -248, -267, -301, -299, -255, -240])
('ECG', 1746700010650818834, [-270, -270, -243, -228, -201, -55, 201, 143, -457, -931, -618, -2, 141, 24, 72, 180, 199, 245, 369, 450, 472, 528, 644, 766, 832, 866, 914, 963, 997, 1002, 929, 841, 866, 910, 810, 659, 547, 440, 360, 313, 260, 201, 182, 197, 199, 184, 187, 197, 187, 172, 158, 116, 75, 55, 0, -94, -124, -114, -153, -182, -182, -211, -243, -255, -267, -262, -250, -255, -279, -311, -335, -374, -413])
('ECG', 1746700011212507710, [-420, -428, -445, -433, -433, -457, -481, -391, -133, -92, -712, -1408, -1146, -457, -360, -406, -245, -238, -299, -253, -218, -228, -226, -206, -187, -160, -148, -145, -119, -82, -70, -72, -80, -87, -119, -163, -206, -272, -347, -401, -455, -489, -506, -520, -515, -510, -515, -501, -481, -469, -455, -437, -425, -411, -394, -379, -379, -377, -367, -357, -345, -328, -323, -330, -326, -291, -270, -277, -262, -236, -223, -187, -124])
('ECG', 1746700011774196588, [-80, -72, -82, -82, -34, 14, 0, -17, -24, -9, 141, 240, -119, -635, -491, 394, 1275, 1596, 1523, 1403, 1255, 1041, 897, 802, 681, 598, 569, 566, 569, 559, 576, 644, 749, 888, 1039, 1199, 1367, 1511, 1635, 1717, 1768, 1803, 1795, 1788, 1786, 1754, 1717, 1683, 1657, 1615, 1562, 1528, 1479, 1425, 1386, 1335, 1277, 1221, 1167, 1121, 1075, 1041, 1017, 983, 951, 919, 885, 844, 795, 756, 729, 708, 691])
('ECG', 1746700012335910896, [674, 639, 586, 518, 467, 442, 423, 386, 347, 318, 284, 291, 420, 442, 12, -627, -688, -111, 209, 155, 211, 265, 201, 170, 180, 167, 155, 158, 160, 165, 175, 167, 172, 204, 221, 226, 236, 226, 175, 92, 4, -41, -63, -111, -182, -228, -248, -274, -296, -294, -282, -277, -274, -274, -270, -257, -245, -240, -231, -221, -231, -231, -214, -218, -231, -236, -248, -257, -255, -257, -262, -260, -255])
('ECG', 1746700012897604858, [-243, -223, -228, -253, -253, -257, -277, -277, -257, -262, -279, -265, -209, -70, 99, -60, -664, -1039, -639, -107, -75, -124, 21, 80, 12, -19, 4, 51, 80, 87, 111, 143, 167, 218, 250, 209, 206, 306, 355, 301, 296, 311, 216, 109, 75, 55, 17, -21, -51, -92, -109, -80, -65, -82, -85, -58, -36, -41, -53, -41, -14, -12, -29, -29, -14, -7, -12, -29, -34, -24, -24, -21, -17])
('ECG', 1746700013459293734, [-12, 0, 0, -26, -53, -72, -82, -82, -85, -92, -97, -104, -104, -26, 124, 38, -484, -963, -759, -214, -75, -126, -21, 21, -19, -17, -14, -29, -17, 0, 0, 4, 14, 24, 38, 63, 75, 68, 75, 85, 58, 19, -4, -53, -131, -177, -206, -253, -289, -284, -282, -299, -287, -255, -223, -189, -170, -182, -167, -111, -111, -148, -121, -82, -85, -60, -12, -21, -48, -17, 12, -2, -17])
('ECG', 1746700014020992784, [4, 34, 53, 80, 82, 53, 51, 53, 24, 7, 31, 53, 46, 34, 29, 36, 170, 328, 87, -545, -810, -321, 158, 143, 114, 214, 211, 172, 189, 199, 192, 209, 226, 228, 231, 248, 272, 294, 304, 321, 347, 355, 318, 277, 255, 214, 121, 26, -26, -75, -131, -165, -170, -167, -167, -163, -148, -143, -163, -187, -172, -150, -155, -163, -153, -148, -150, -150, -143, -153, -187, -189, -170])
('ECG', 1746700014582702004, [-184, -197, -184, -187, -204, -204, -184, -182, -182, -167, -170, -189, -231, -267, -250, -221, -231, -236, -228, -240, -218, -21, 138, -177, -846, -1041, -496, -124, -182, -116, -2, -41, -75, -55, -51, -53, -34, -7, 9, 24, 41, 70, 92, 85, 90, 119, 128, 131, 109, 55, 17, -38, -133, -197, -216, -250, -277, -265, -257, -282, -272, -240, -248, -250, -226, -211, -199, -180, -180, -201, -197, -165, -170])
('ECG', 1746700015144390880, [-197, -177, -150, -150, -150, -145, -158, -175, -165, -158, -158, -148, -138, -124, -102, -87, -85, -97, -141, -160, -131, -141, -160, -141, -133, -148, -99, 77, 155, -206, -798, -912, -386, -24, -46, 9, 99, 70, 63, 92, 77, 70, 87, 92, 109, 124, 121, 145, 189, 214, 228, 233, 218, 204, 182, 153, 102, 24, -53, -107, -158, -204, -211, -201, -214, -218, -201, -192, -189, -182, -177, -165, -158])
('ECG', 1746700015706079758, [-167, -163, -148, -141, -136, -128, -126, -136, -150, -148, -145, -160, -165, -150, -145, -141, -131, -128, -153, -177, -153, -116, -104, -107, -104, -109, -141, -163, -153, -153, -158, -150, -160, -170, -153, -36, 153, 51, -530, -1026, -759, -145, 4, -63, 17, 60, 26, 29, 48, 51, 70, 80, 72, 80, 107, 128, 155, 192, 204, 211, 226, 206, 180, 163, 102, 26, -24, -85, -153, -194, -216, -226, -226])
('ECG', 1746700016267799152, [-231, -231, -221, -214, -206, -197, -197, -187, -177, -175, -160, -148, -155, -160, -155, -155, -153, -167, -175, -163, -155, -158, -153, -155, -170, -170, -165, -172, -175, -165, -160, -167, -158, -138, -126, -124, -126, -126, -143, -180, -182, -160, -167, -180, -167, -163, -170, -53, 138, 4, -593, -1058, -727, -121, -14, -75, 21, 48, 14, 26, 41, 46, 60, 70, 75, 94, 119, 116, 114, 155, 194, 189, 187])
('ECG', 1746700016829488028, [182, 155, 131, 97, 46, -21, -121, -197, -194, -204, -257, -265, -233, -223, -223, -218, -226, -221, -192, -172, -182, -201, -209, -192, -177, -182, -197, -199, -211, -238, -236, -206, -221, -270, -270, -245, -260, -277, -257, -255, -284, -299, -301, -306, -306, -316, -330, -367, -406, -403, -386, -384, -372, -350, -343, -340, -335, -311, -194, -29, -184, -820, -1277, -900, -284, -172, -206, -92, -58, -102, -85, -72, -94])
('ECG', 1746700017391176904, [-80, -60, -63, -51, -26, -17, -4, 26, 55, 72, 53, 2, -2, 0, -58, -131, -180, -216, -277, -335, -347, -350, -367, -374, -372, -350, -338, -345, -335, -313, -304, -304, -296, -282, -277, -291, -301, -296, -294, -291, -289, -294, -289, -284, -289, -291, -289, -296, -296, -294, -301, -287, -260, -248, -231, -226, -253, -272, -294, -306, -296, -294, -304, -304, -301, -284, -201, -60, -131, -639, -1158, -970, -364])
('ECG', 1746700017952870868, [-180, -233, -126, -65, -114, -109, -65, -63, -77, -63, -41, -36, -24, -7, 14, 41, 58, 68, 65, 41, 14, -12, -51, -99, -158, -216, -262, -301, -326, -333, -338, -338, -338, -335, -321, -316, -306, -274, -265, -277, -260, -245, -255, -257, -253, -253, -248, -243, -253, -262, -255, -243, -248, -257, -257, -240, -236, -248, -250, -240, -218, -192, -187, -209, -233, -248, -257, -253, -238, -236, -240, -243, -223])
('ECG', 1746700018514585174, [-111, 51, -97, -720, -1141, -754, -189, -97, -116, -31, -21, -43, -31, -19, -9, -7, -12, -9, 12, 34, 53, 75, 102, 114, 109, 109, 99, 65, 34, 14, -26, -109, -158, -177, -231, -267, -257, -253, -260, -260, -245, -216, -211, -216, -216, -216, -214, -209, -197, -182, -189, -221, -236, -226, -238, -265, -277, -282, -279, -291, -306, -289, -287, -309, -318, -301, -291, -299, -279, -248, -262, -296, -326])
('ECG', 1746700019076274052, [-345, -347, -347, -343, -335, -333, -313, -238, -75, -68, -571, -1301, -1321, -559, -133, -209, -155, -53, -97, -121, -92, -82, -82, -77, -60, -31, -19, -21, -7, 31, 53, 48, 51, 38, 14, -4, -46, -109, -172, -238, -301, -343, -377, -408, -413, -394, -394, -401, -379, -362, -357, -352, -340, -330, -340, -330, -313, -330, -333, -321, -333, -335, -328, -321, -328, -340, -328, -313, -333, -338, -311, -309, -316])
('ECG', 1746700019637962928, [-301, -289, -287, -270, -272, -296, -309, -321, -328, -323, -321, -323, -318, -282, -211, -94, -38, -399, -1199, -1530, -871, -201, -126, -119, -31, -46, -70, -38, -29, -34, -21, -17, -21, -7, 24, 43, 63, 80, 85, 97, 85, 53, 36, 7, -46, -104, -172, -240, -299, -333, -352, -360, -355, -355, -355, -343, -326, -309, -304, -299, -287, -289, -291, -279, -274, -277, -279, -289, -279, -270, -277, -279, -289])
('ECG', 1746700020199667064, [-279, -267, -282, -284, -265, -260, -270, -265, -240, -221, -216, -226, -245, -270, -287, -272, -260, -274, -272, -243, -209, -124, 14, -90, -742, -1457, -1255, -411, -55, -104, -21, 34, -7, -2, 19, 9, 7, 31, 53, 65, 60, 72, 102, 114, 128, 148, 141, 121, 94, 60, 29, -24, -104, -175, -226, -265, -296, -313, -318, -316, -313, -311, -287, -265, -270, -267, -253, -243, -240, -260, -270, -253, -243])
('ECG', 1746700020761371198, [-248, -245, -248, -245, -248, -253, -245, -228, -236, -257, -255, -238, -228, -223, -216, -206, -197, -194, -194, -199, -240, -267, -253, -250, -260, -248, -221, -182, -80, 51, -107, -793, -1423, -1121, -321, -43, -92, -2, 29, -19, 0, 19, 2, 9, 34, 48, 53, 43, 53, 94, 111, 114, 126, 116, 92, 77, 51, 4, -46, -104, -167, -221, -255, -289, -309, -304, -299, -296, -277, -260, -250, -243, -238])
('ECG', 1746700021323060074, [-233, -228, -223, -223, -226, -216, -201, -189, -184, -206, -223, -211, -194, -180, -172, -170, -167, -160, -150, -150, -153, -150, -141, -124, -121, -145, -163, -143, -124, -133, -138, -128, -116, -65, 63, 236, 155, -459, -1082, -824, -77, 148, 97, 211, 250, 197, 218, 248, 223, 231, 257, 255, 267, 291, 304, 313, 318, 328, 343, 343, 318, 282, 267, 245, 165, 82, 41, -14, -63, -68, -99, -158, -148])
('ECG', 1746700021884779468, [-119, -119, -114, -94, -92, -90, -82, -90, -90, -82, -87, -90, -87, -92, -104, -107, -99, -99, -107, -119, -119, -107, -107, -114, -104, -87, -97, -99, -72, -63, -85, -124, -141, -126, -121, -126, -121, -121, -109, -17, 167, 138, -445, -1129, -956, -216, 38, -21, 58, 90, 53, 65, 85, 85, 94, 109, 119, 136, 145, 138, 155, 194, 199, 194, 199, 177, 143, 119, 97, 53, -2, -60, -119])
('ECG', 1746700022446468346, [-177, -209, -218, -218, -211, -209, -197, -184, -192, -192, -170, -170, -175, -167, -167, -175, -177, -182, -192, -184, -158, -170, -204, -199, -182, -184, -184, -192, -197, -177, -155, -153, -155, -155, -167, -199, -209, -192, -204, -214, -197, -182, -155, -31, 143, -14, -715, -1216, -768, -150, -109, -102, 48, 26, -26, 21, 41, 24, 41, 51, 43, 63, 90, 99, 119, 150, 155, 136, 131, 128, 97, 65, 38])
('ECG', 1746700023008157222, [-4, -63, -119, -160, -192, -209, -221, -255, -272, -233, -211, -218, -201, -177, -165, -160, -182, -197, -177, -172, -172, -167, -182, -187, -145, -131, -172, -187, -172, -172, -180, -180, -150, -133, -136, -126, -114, -131, -165, -175, -163, -172, -182, -167, -150, -141, -29, 170, 36, -630, -1131, -759, -126, -26, -70, 46, 75, 36, 48, 60, 43, 43, 68, 58, 55, 124, 167, 136, 143, 189, 180, 158, 150])
('ECG', 1746700023569876616, [109, 63, 41, -7, -80, -138, -189, -236, -260, -277, -287, -284, -265, -243, -240, -236, -209, -204, -223, -223, -214, -209, -206, -197, -197, -201, -199, -197, -209, -226, -218, -189, -204, -211, -165, -155, -165, -145, -141, -163, -197, -233, -231, -199, -197, -214, -211, -192, -141, 41, 163, -204, -924, -1068, -418, -48, -124, -55, 21, -19, -9, 31, 21, 9, 31, 46, 46, 60, 90, 116, 131, 128, 133])
('ECG', 1746700024131565492, [141, 116, 80, 53, 38, 4, -75, -158, -187, -194, -226, -265, -267, -257, -277, -270, -236, -228, -226, -209, -199, -199, -197, -197, -192, -180, -184, -199, -184, -172, -192, -206, -204, -182, -180, -194, -189, -170, -163, -150, -143, -145, -167, -206, -206, -184, -184, -187, -199, -211, -148, 38, 133, -231, -927, -1082, -435, 9, -43, -17, 65, 29, 17, 58, 60, 46, 68, 99, 111, 114, 126, 150, 180])
('ECG', 1746700024693259456, [204, 211, 206, 192, 167, 138, 104, 55, -12, -77, -121, -165, -197, -199, -214, -233, -221, -206, -206, -180, -158, -175, -175, -141, -136, -158, -158, -131, -116, -131, -143, -136, -143, -153, -155, -148, -143, -145, -143, -136, -143, -136, -116, -111, -107, -99, -109, -148, -189, -175, -136, -145, -175, -170, -145, -99, 68, 197, -124, -812, -1043, -472, -17, -55, -21, 77, 36, 19, 65, 58, 53, 80, 75])
('ECG', 1746700025254973762, [80, 111, 133, 148, 172, 189, 189, 184, 184, 182, 150, 99, 48, -14, -92, -155, -199, -233, -240, -218, -228, -255, -248, -228, -216, -211, -214, -201, -165, -148, -167, -180, -180, -170, -153, -153, -167, -180, -177, -163, -155, -170, -177, -167, -165, -175, -177, -170, -160, -163, -163, -150, -128, -114, -119, -136, -158, -182, -184, -175, -175, -172, -163, -165, -141, 36, 204, -46, -744, -1114, -598, -51, -51])
('ECG', 1746700025816662640, [-55, 51, 41, 7, 24, 46, 63, 68, 65, 77, 92, 109, 138, 165, 175, 184, 187, 175, 150, 131, 102, 43, -21, -75, -128, -184, -226, -250, -250, -243, -255, -253, -221, -216, -218, -199, -189, -189, -187, -184, -187, -172, -148, -160, -180, -165, -165, -184, -167, -155, -184, -204, -184, -167, -170, -165, -165, -167, -160, -163, -172, -177, -182, -175, -145, -141, -163, -153, -126, -111, -114, -128, -148])
('ECG', 1746700026378351516, [-167, -177, -165, -153, -155, -167, -175, -163, -38, 177, 104, -506, -1082, -800, -138, -7, -80, 26, 51, 2, 29, 60, 51, 48, 63, 80, 87, 97, 121, 138, 155, 175, 182, 182, 177, 155, 116, 72, 26, -43, -128, -187, -209, -226, -250, -250, -228, -236, -238, -226, -221, -214, -199, -187, -180, -180, -187, -180, -170, -170, -170, -155, -155, -177, -180, -172, -177, -180, -177, -175, -165, -165, -177])
('ECG', 1746700026940070910, [-177, -175, -177, -175, -177, -172, -160, -160, -165, -153, -150, -163, -167, -150, -143, -163, -170, -153, -141, -138, -126, -114, -109, -107, -124, -160, -165, -145, -155, -180, -177, -165, -160, -65, 143, 141, -369, -997, -900, -233, 29, -51, 7, 48, 9, 26, 58, 53, 46, 48, 72, 99, 99, 121, 158, 163, 163, 177, 182, 163, 131, 107, 90, 53, -17, -87, -138, -189, -228, -243, -248, -257, -255])
('ECG', 1746700027501759786, [-240, -226, -214, -204, -197, -184, -180, -197, -187, -160, -167, -182, -165, -155, -177, -182, -165, -158, -172, -180, -172, -167, -177, -189, -189, -170, -158, -170, -177, -160, -158, -177, -172, -158, -158, -170, -167, -150, -145, -150, -153, -158, -145, -136, -150, -145, -119, -107, -97, -90, -109, -148, -172, -163, -148, -155, -165, -165, -150, -12, 199, 97, -508, -1058, -800, -150, 7, -75, 7, 43, 9, 38, 63])
('ECG', 1746700028063453750, [48, 58, 72, 77, 87, 109, 136, 145, 155, 170, 182, 187, 172, 150, 133, 92, 29, -31, -102, -170, -201, -214, -236, -250, -250, -248, -245, -243, -240, -223, -192, -177, -182, -187, -182, -175, -175, -177, -167, -148, -150, -167, -167, -170, -170, -167, -172, -182, -172, -160, -167, -172, -163, -165, -167, -160, -160, -163, -163, -170, -165, -143, -141, -153, -153, -153, -145, -145, -167, -165, -136, -133, -126])
('ECG', 1746700028625168056, [-92, -87, -107, -114, -141, -177, -182, -170, -155, -145, -153, -150, -48, 153, 124, -437, -1065, -888, -194, 19, -77, 9, 70, 29, 29, 48, 36, 29, 53, 90, 99, 104, 131, 150, 177, 201, 177, 163, 199, 201, 141, 90, 51, -12, -94, -165, -204, -221, -240, -255, -255, -260, -257, -226, -214, -226, -216, -201, -192, -177, -172, -177, -170, -167, -175, -175, -175, -180, -167, -172, -194, -182, -172])
('ECG', 1746700029186856934, [-175, -165, -172, -177, -155, -170, -197, -192, -182, -182, -167, -150, -163, -172, -158, -153, -170, -163, -148, -167, -175, -160, -158, -150, -116, -94, -99, -111, -128, -155, -170, -160, -163, -177, -182, -177, -133, 48, 223, -7, -693, -1070, -588, -75, -85, -77, 41, 19, -9, 46, 70, 43, 43, 55, 72, 99, 111, 126, 153, 172, 189, 204, 199, 187, 163, 119, 68, 17, -38, -114, -180, -216, -238])
('ECG', 1746700029748545810, [-257, -262, -262, -267, -265, -253, -240, -236, -231, -214, -211, -226, -211, -187, -187, -189, -194, -199, -189, -187, -214, -223, -199, -182, -189, -197, -197, -209, -218, -211, -199, -192, -187, -194, -209, -209, -192, -175, -180, -197, -201, -194, -175, -150, -148, -155, -160, -172, -192, -209, -216, -218, -223, -204, -177, -143, 34, 218, -60, -820, -1150, -576, -102, -143, -99, 9, -7, -9, 4, -14, -2, 29, 31])
('ECG', 1746700030310234686, [36, 63, 85, 92, 111, 143, 165, 177, 172, 145, 114, 85, 43, -17, -82, -148, -204, -240, -257, -265, -274, -287, -279, -267, -262, -250, -233, -233, -221, -201, -211, -206, -180, -187, -199, -187, -180, -187, -187, -189, -197, -189, -180, -187, -192, -187, -189, -187, -182, -189, -199, -197, -177, -160, -167, -180, -167, -153, -148, -136, -119, -119, -155, -199, -201, -182, -177, -187, -187, -175, -102, 85, 143])
('ECG', 1746700030871954080, [-289, -975, -1036, -379, -29, -97, -29, 51, 4, 2, 36, 29, 24, 41, 58, 68, 72, 90, 121, 138, 153, 187, 201, 192, 184, 158, 107, 43, -12, -80, -160, -216, -243, -262, -277, -277, -262, -253, -257, -253, -238, -223, -221, -218, -209, -199, -187, -192, -199, -180, -170, -184, -182, -170, -177, -189, -189, -180, -182, -189, -182, -182, -189, -177, -175, -187, -187, -184, -189, -177, -160, -160, -148])
('ECG', 1746700031433642956, [-114, -102, -128, -163, -189, -182, -165, -180, -189, -170, -160, -126, 53, 172, -163, -858, -1092, -503, -26, -68, -48, 51, 21, -7, 29, 41, 38, 48, 55, 65, 75, 102, 136, 155, 182, 204, 201, 197, 192, 165, 121, 68, 4, -77, -148, -206, -250, -265, -274, -282, -277, -267, -262, -250, -243, -238, -226, -211, -206, -211, -206, -187, -177, -180, -175, -163, -175, -194, -192, -187, -184, -180, -187])
('ECG', 1746700031995331832, [-206, -192, -150, -155, -187, -175, -167, -187, -182, -163, -158, -121, -82, -119, -180, -189, -175, -182, -194, -177, -160, -167, -163, -29, 184, 80, -569, -1141, -817, -155, -41, -97, 19, 48, -2, 31, 75, 46, 29, 55, 80, 99, 116, 126, 150, 194, 223, 206, 182, 194, 187, 143, 104, 53, -24, -90, -143, -189, -218, -228, -226, -223, -228, -228, -221, -197, -180, -182, -184, -167, -150, -141, -133])
('ECG', 1746700032557020710, [-138, -153, -155, -148, -150, -150, -133, -138, -148, -133, -124, -128, -124, -138, -153, -131, -121, -138, -136, -128, -136, -133, -119, -107, -92, -75, -75, -92, -119, -138, -138, -138, -138, -141, -138, -128, -109, 29, 218, 77, -552, -1073, -759, -119, 24, -19, 70, 82, 36, 55, 85, 85, 87, 97, 97, 116, 141, 155, 182, 211, 223, 233, 238, 223, 201, 167, 119, 63, 4, -75, -153, -201, -223])
('ECG', 1746700033118709586, [-233, -238, -228, -228, -250, -240, -201, -187, -204, -209, -192, -165, -150, -158, -160, -153, -165, -170, -153, -150, -158, -155, -158, -163, -158, -153, -153, -153, -160, -158, -150, -153, -160, -153, -153, -153, -131, -114, -104, -92, -94, -124, -167, -184, -160, -150, -158, -155, -155, -155, -75, 143, 209, -245, -963, -1058, -384, 9, -63, -7, 77, 24, 17, 65, 70, 58, 63, 72, 82, 94, 116, 158, 184])
('ECG', 1746700033680413722, [187, 204, 218, 209, 194, 163, 107, 55, 2, -65, -133, -194, -243, -260, -255, -262, -270, -253, -238, -236, -228, -214, -197, -184, -194, -199, -184, -172, -172, -172, -175, -180, -170, -165, -170, -167, -177, -182, -167, -170, -189, -194, -170, -153, -160, -165, -160, -167, -170, -153, -124, -104, -109, -131, -150, -160, -170, -172, -163, -158, -163, -165, -126, 46, 233, 21, -686, -1133, -681, -97, -60, -75, 41])
('ECG', 1746700034242097512, [38, 4, 34, 43, 26, 36, 70, 90, 94, 109, 128, 143, 167, 194, 201, 189, 172, 148, 124, 85, 12, -80, -160, -218, -253, -272, -287, -301, -294, -277, -277, -284, -267, -253, -255, -245, -226, -231, -248, -233, -206, -206, -223, -221, -214, -223, -226, -228, -228, -216, -209, -209, -209, -211, -216, -221, -216, -206, -184, -150, -153, -175, -177, -192, -209, -216, -221, -209, -201, -204, -187, -58, 150])
('ECG', 1746700034803781302, [55, -596, -1165, -841, -211, -116, -131, 14, 36, -7, -2, 7, 7, 26, 38, 41, 58, 80, 104, 128, 143, 155, 180, 187, 160, 131, 80, 34, 12, -58, -155, -204, -226, -267, -299, -284, -262, -272, -284, -279, -265, -248, -231, -218, -214, -211, -197, -177, -184, -201, -204, -206, -199, -177, -175, -187, -187, -182, -189, -194, -197, -197, -187, -184, -175, -131, -114, -145, -170, -192, -201, -182, -180])
('ECG', 1746700035365495608, [-189, -189, -199, -182, -75, 124, 141, -343, -1012, -1000, -343, -58, -121, -14, 53, -2, 12, 46, 46, 46, 36, 51, 97, 104, 102, 133, 158, 167, 182, 187, 170, 145, 126, 87, 24, -43, -104, -165, -209, -236, -250, -253, -248, -248, -257, -253, -236, -228, -226, -204, -182, -187, -192, -177, -170, -175, -170, -165, -177, -189, -175, -158, -170, -175, -165, -163, -158, -153, -163, -175, -167, -138, -119])
('ECG', 1746700035927184486, [-111, -119, -131, -138, -167, -177, -150, -141, -150, -153, -155, -133, -7, 175, 41, -579, -1065, -734, -107, 14, -58, 38, 85, 46, 46, 55, 53, 75, 97, 92, 104, 131, 153, 175, 199, 211, 221, 228, 218, 197, 172, 126, 48, -29, -87, -150, -206, -228, -236, -248, -238, -233, -240, -228, -204, -199, -194, -177, -172, -175, -160, -153, -153, -150, -155, -163, -155, -155, -165, -163, -153, -153, -155])
('ECG', 1746700036488873362, [-145, -148, -165, -153, -141, -165, -167, -136, -116, -104, -107, -119, -136, -153, -160, -158, -160, -158, -163, -170, -153, -31, 177, 116, -464, -1048, -832, -172, 7, -70, 21, 63, 12, 36, 63, 55, 77, 90, 82, 92, 104, 128, 172, 201, 201, 206, 228, 226, 187, 153, 116, 53, -24, -104, -165, -206, -245, -270, -262, -255, -260, -260, -240, -221, -218, -214, -204, -204, -197, -187, -184, -170, -158])
('ECG', 1746700037050562238, [-165, -182, -182, -170, -158, -167, -187, -182, -155, -158, -170, -175, -182, -170, -158, -163, -170, -172, -160, -163, -165, -116, -75, -109, -158, -175, -175, -175, -170, -165, -172, -175, -163, -48, 180, 124, -476, -1070, -851, -194, -7, -70, 24, 63, 14, 26, 65, 58, 48, 70, 87, 97, 116, 136, 155, 182, 206, 206, 199, 201, 184, 148, 104, 51, -17, -92, -158, -209, -236, -248, -255, -265, -262])
('ECG', 1746700037612251114, [-248, -245, -253, -236, -211, -211, -204, -177, -167, -177, -182, -172, -165, -175, -177, -167, -165, -172, -172, -170, -175, -177, -172, -170, -170, -177, -182, -180, -175, -167, -155, -158, -167, -150, -138, -145, -124, -104, -119, -133, -153, -184, -187, -177, -170, -165, -163, -163, -92, 114, 199, -218, -924, -1048, -406, -2, -72, -29, 82, 51, 17, 46, 55, 60, 72, 70, 80, 102, 124, 148, 175, 192, 209])
('ECG', 1746700038173939990, [209, 182, 177, 182, 131, 63, 9, -68, -141, -182, -221, -255, -248, -240, -265, -272, -240, -223, -218, -201, -194, -192, -187, -182, -175, -165, -165, -189, -192, -163, -153, -165, -155, -148, -175, -187, -172, -165, -167, -180, -180, -158, -145, -158, -165, -155, -158, -170, -165, -145, -133, -126, -104, -102, -124, -141, -158, -177, -163, -145, -165, -167, -150, -133, 12, 228, 94, -564, -1104, -751, -94, 2, -70])
('ECG', 1746700038735628866, [31, 55, 19, 48, 70, 48, 60, 99, 102, 99, 126, 158, 172, 194, 218, 223, 221, 214, 187, 158, 124, 55, -26, -92, -160, -214, -228, -245, -260, -248, -250, -257, -243, -216, -204, -209, -199, -180, -180, -182, -165, -158, -167, -177, -175, -165, -170, -175, -167, -170, -182, -177, -177, -187, -180, -165, -165, -180, -182, -184, -182, -158, -143, -148, -133, -116, -133, -165, -177, -177, -182, -184, -177])
('ECG', 1746700039297317744, [-184, -192, -175, -63, 150, 155, -345, -987, -917, -296, -85, -126, -2, 31, -29, 2, 34, 17, 24, 48, 58, 75, 87, 90, 111, 141, 163, 182, 189, 172, 150, 116, 80, 36, -31, -114, -182, -218, -238, -257, -262, -265, -272, -267, -248, -243, -245, -236, -206, -194, -206, -204, -175, -170, -192, -182, -163, -175, -187, -177, -170, -175, -180, -180, -180, -182, -189, -187, -172, -172, -175, -180, -187])
('ECG', 1746700039859006620, [-172, -145, -131, -111, -121, -148, -150, -170, -194, -177, -172, -177, -170, -175, -158, -24, 160, 55, -532, -1056, -766, -160, -55, -99, 21, 43, 0, 26, 43, 26, 29, 48, 65, 77, 87, 104, 128, 153, 167, 177, 182, 172, 150, 116, 72, 21, -38, -109, -170, -211, -228, -236, -243, -243, -243, -245, -228, -199, -201, -218, -204, -177, -172, -172, -167, -167, -170, -160, -141, -141, -160, -175, -167])
('ECG', 1746700040420695496, [-165, -167, -158, -158, -167, -165, -158, -167, -167, -153, -141, -138, -160, -167, -126, -92, -94, -99, -107, -126, -150, -165, -167, -155, -141, -143, -158, -150, -51, 145, 141, -364, -980, -890, -245, 21, -46, 12, 60, 36, 48, 68, 63, 68, 80, 90, 114, 133, 138, 150, 187, 216, 223, 233, 238, 221, 184, 138, 87, 21, -51, -121, -184, -218, -223, -231, -236, -226, -216, -211, -197, -182, -192])
('ECG', 1746700040982394546, [-201, -172, -148, -163, -163, -131, -121, -126, -133, -148, -145, -131, -128, -148, -145, -126, -136, -145, -128, -119, -121, -131, -141, -133, -124, -126, -126, -119, -111, -97, -75, -68, -80, -107, -133, -141, -128, -136, -141, -131, -131, -138, -48, 170, 184, -321, -973, -934, -270, 43, -36, 21, 90, 46, 46, 77, 72, 72, 92, 102, 109, 128, 155, 172, 182, 214, 248, 255, 238, 204, 175, 150, 97])
('ECG', 1746700041544078336, [21, -55, -121, -180, -218, -236, -243, -245, -245, -236, -228, -236, -221, -184, -177, -182, -180, -172, -165, -170, -172, -160, -145, -143, -153, -165, -167, -163, -158, -155, -153, -150, -158, -167, -167, -160, -155, -153, -155, -148, -143, -153, -148, -141, -148, -138, -111, -99, -102, -109, -121, -150, -175, -165, -148, -155, -170, -160, -153, -141, 26, 216, 0, -676, -1075, -613, -77, -58, -58, 34, 17, -4, 26])
('ECG', 1746700042105792642, [38, 29, 36, 55, 68, 82, 99, 111, 133, 167, 187, 197, 194, 172, 148, 111, 65, 17, -51, -138, -204, -233, -253, -279, -299, -291, -284, -289, -277, -253, -238, -236, -238, -238, -223, -211, -214, -209, -204, -214, -218, -211, -221, -238, -223, -209, -214, -216, -211, -204, -209, -221, -214, -204, -209, -201, -184, -189, -197, -184, -150, -133, -145, -163, -184, -209, -209, -197, -194, -192, -189, -199, -172])
('ECG', 1746700042667476434, [4, 199, -2, -700, -1114, -635, -116, -124, -90, 38, 4, -21, 26, 24, 9, 38, 48, 46, 63, 80, 99, 128, 148, 163, 177, 170, 153, 141, 119, 58, -19, -85, -141, -189, -218, -243, -274, -274, -257, -260, -267, -257, -238, -223, -216, -204, -199, -197, -184, -165, -158, -165, -177, -192, -194, -180, -170, -172, -172, -167, -175, -182, -172, -170, -180, -177, -167, -170, -175, -167, -163, -150, -138])
('ECG', 1746700043229170396, [-136, -124, -104, -104, -143, -177, -182, -172, -163, -155, -160, -167, -155, -34, 163, 75, -528, -1073, -790, -160, -21, -65, 31, 48, 12, 41, 65, 58, 53, 58, 77, 104, 121, 128, 148, 170, 194, 214, 214, 211, 189, 145, 107, 63, -7, -87, -145, -184, -211, -228, -231, -223, -221, -216, -209, -206, -204, -184, -170, -172, -170, -158, -153, -153, -145, -143, -153, -153, -138, -145, -158, -145, -136])
('ECG', 1746700043790859272, [-150, -145, -133, -141, -160, -150, -133, -133, -141, -136, -119, -104, -87, -70, -85, -126, -155, -155, -150, -145, -141, -133, -136, -136, -41, 158, 158, -323, -970, -951, -277, 31, -55, 24, 104, 41, 31, 80, 75, 60, 80, 102, 111, 126, 148, 172, 192, 197, 209, 228, 226, 209, 182, 141, 87, 14, -63, -141, -201, -228, -238, -243, -248, -248, -233, -223, -218, -209, -201, -197, -184, -175, -167])
('ECG', 1746700044352548148, [-167, -177, -175, -163, -160, -158, -155, -165, -170, -163, -155, -160, -167, -163, -163, -175, -163, -145, -155, -155, -141, -136, -121, -99, -116, -145, -160, -167, -175, -170, -155, -150, -165, -175, -160, -21, 194, 97, -537, -1097, -790, -163, -58, -97, 17, 29, -14, 14, 29, 19, 29, 34, 41, 60, 85, 99, 114, 133, 160, 180, 184, 165, 141, 109, 55, 0, -65, -141, -194, -231, -260, -274, -277])
('ECG', 1746700044914237024, [-287, -284, -265, -255, -260, -253, -233, -218, -206, -199, -194, -187, -192, -201, -192, -192, -204, -199, -180, -182, -194, -192, -187, -187, -184, -182, -192, -192, -167, -158, -160, -145, -133, -143, -160, -177, -189, -184, -167, -167, -180, -182, -172, -104, 92, 175, -233, -929, -1036, -411, -53, -104, -38, 41, 17, 14, 36, 36, 36, 53, 65, 70, 87, 107, 128, 158, 177, 189, 199, 187, 163, 133, 92])
('ECG', 1746700045475925900, [36, -31, -92, -143, -187, -228, -250, -255, -253, -255, -255, -240, -228, -221, -204, -192, -194, -192, -180, -175, -167, -167, -172, -175, -175, -177, -182, -180, -160, -160, -170, -172, -172, -170, -165, -153, -155, -182, -197, -158, -116, -111, -121, -124, -143, -177, -182, -160, -148, -160, -170, -167, -160, -65, 136, 119, -403, -1034, -929, -257, -2, -72, 19, 70, 12, 24, 60, 48, 48, 70, 82, 90, 107])
('ECG', 1746700046037614778, [119, 138, 163, 184, 206, 214, 197, 167, 141, 107, 48, -19, -80, -131, -177, -216, -216, -209, -238, -245, -206, -187, -192, -187, -175, -177, -177, -160, -148, -141, -138, -153, -160, -150, -138, -136, -145, -148, -145, -141, -143, -143, -138, -138, -153, -155, -143, -128, -114, -99, -94, -97, -102, -126, -160, -158, -136, -148, -165, -148, -128, -119, -2, 192, 68, -559, -1082, -773, -119, 31, -34, 58, 92])
('ECG', 1746700046599303654, [51, 65, 82, 77, 87, 99, 116, 141, 141, 141, 175, 211, 231, 233, 221, 216, 206, 163, 114, 72, 2, -94, -163, -192, -209, -226, -233, -231, -231, -233, -226, -204, -182, -177, -177, -170, -165, -167, -158, -145, -150, -165, -163, -148, -143, -145, -155, -153, -141, -145, -163, -165, -150, -148, -158, -150, -145, -158, -145, -124, -114, -97, -85, -97, -128, -163, -172, -158, -143, -145, -148, -148, -131])
('ECG', 1746700047160992530, [-9, 192, 131, -433, -1058, -914, -216, 41, -53, 24, 104, 58, 48, 82, 82, 77, 94, 104, 114, 133, 153, 167, 192, 221, 243, 238, 214, 192, 163, 119, 70, 4, -80, -143, -180, -218, -240, -240, -233, -236, -243, -238, -218, -199, -192, -189, -177, -167, -163, -158, -167, -182, -167, -155, -165, -158, -153, -170, -167, -160, -170, -172, -170, -160, -160, -175, -175, -163, -163, -153, -138, -126, -111])
('ECG', 1746700047722681406, [-121, -148, -165, -182, -189, -175, -170, -177, -172, -165, -131, 41, 218, -24, -744, -1143, -639, -94, -82, -58, 48, 17, -7, 29, 36, 29, 41, 53, 63, 75, 90, 109, 136, 148, 155, 180, 187, 148, 99, 75, 46, -14, -94, -160, -204, -240, -267, -274, -279, -284, -277, -260, -257, -248, -226, -226, -223, -211, -211, -209, -194, -197, -199, -192, -192, -199, -204, -206, -199, -189, -199, -216, -209])
('ECG', 1746700048284370282, [-189, -192, -204, -206, -192, -172, -158, -138, -131, -153, -189, -211, -204, -197, -201, -192, -184, -182, -150, 7, 175, -38, -751, -1163, -644, -92, -99, -85, 41, 29, 2, 29, 24, 21, 53, 68, 68, 75, 87, 119, 148, 158, 167, 187, 182, 136, 99, 97, 58, -19, -80, -136, -194, -221, -236, -250, -255, -253, -250, -243, -223, -209, -211, -214, -199, -184, -177, -175, -175, -177, -172, -165, -160])
('ECG', 1746700048846059158, [-165, -167, -165, -170, -177, -177, -175, -170, -163, -153, -160, -172, -163, -145, -131, -114, -109, -126, -145, -167, -175, -165, -167, -167, -158, -165, -158, -58, 133, 126, -362, -997, -953, -279, 38, -41, 9, 77, 43, 41, 72, 77, 75, 77, 85, 109, 128, 136, 155, 189, 209, 201, 199, 204, 187, 158, 116, 46, -19, -72, -133, -189, -221, -238, -243, -238, -240, -240, -221, -206, -211, -199, -163])
('ECG', 1746700049407748036, [-163, -194, -182, -155, -160, -160, -150, -148, -163, -184, -177, -148, -145, -160, -155, -148, -170, -182, -160, -153, -167, -177, -165, -138, -119, -114, -104, -109, -128, -150, -175, -177, -158, -165, -177, -165, -145, -70, 121, 189, -233, -953, -1075, -403, 19, -58, -21, 82, 51, 26, 58, 68, 58, 65, 82, 92, 114, 141, 153, 177, 194, 192, 189, 189, 172, 148, 116, 63, -7, -75, -128, -184, -231])
('ECG', 1746700049969436912, [-255, -262, -245, -233, -240, -238, -228, -216, -204, -197, -187, -175, -170, -175, -170, -170, -182, -175, -153, -160, -177, -167, -170, -187, -180, -167, -182, -184, -163, -163, -180, -175, -163, -160, -138, -109, -116, -143, -163, -182, -180, -163, -163, -187, -192, -163, -114, 29, 194, -14, -739, -1175, -666, -63, -29, -36, 72, 55, 17, 58, 65, 43, 55, 82, 94, 104, 121, 155, 175, 167, 177, 204, 201])
('ECG', 1746700050531125788, [175, 148, 116, 65, 7, -48, -114, -184, -228, -238, -243, -253, -250, -243, -236, -216, -201, -199, -201, -201, -187, -167, -170, -175, -170, -177, -177, -167, -165, -170, -175, -182, -182, -180, -175, -172, -175, -170, -170, -180, -165, -145, -145, -128, -109, -126, -163, -187, -182, -167, -163, -158, -165, -192, -180, -53, 172, 189, -350, -1070, -1002, -287, -31, -111, 4, 65, 4, 29, 70, 55, 43, 55, 82])
('ECG', 1746700051092814664, [107, 111, 119, 138, 158, 182, 206, 199, 167, 148, 126, 70, 19, -24, -92, -158, -204, -240, -260, -262, -262, -274, -272, -238, -228, -238, -216, -194, -197, -194, -192, -204, -199, -180, -182, -194, -187, -184, -187, -184, -199, -209, -194, -189, -197, -189, -189, -187, -167, -153, -143, -136, -155, -192, -199, -189, -189, -201, -192, -180, -189, -182, -75, 143, 141, -418, -1094, -966, -277, -53, -102, 14, 51])
('ECG', 1746700051654503540, [-4, 14, 46, 41, 51, 68, 63, 77, 111, 126, 133, 153, 175, 182, 177, 172, 150, 109, 63, 24, -26, -109, -184, -201, -204, -238, -267, -257, -240, -248, -250, -218, -197, -209, -201, -175, -170, -175, -175, -177, -182, -172, -160, -167, -175, -172, -177, -184, -182, -167, -158, -180, -194, -175, -160, -160, -141, -114, -111, -136, -153, -170, -194, -182, -153, -167, -182, -167, -158, -82, 116, 170, -291])
('ECG', 1746700052216192416, [-990, -1021, -357, -36, -94, 4, 70, 14, 24, 53, 43, 55, 72, 72, 90, 116, 126, 138, 167, 192, 192, 182, 180, 160, 116, 82, 46, -17, -87, -153, -204, -221, -231, -253, -257, -245, -238, -236, -236, -218, -189, -184, -194, -192, -175, -165, -167, -167, -155, -155, -172, -182, -175, -160, -160, -165, -167, -167, -167, -167, -165, -160, -153, -141, -126, -124, -131, -143, -167, -184, -180, -175, -172])
('ECG', 1746700052777881294, [-153, -150, -167, -121, 65, 175, -150, -824, -1082, -530, -34, -43, -31, 65, 48, 29, 68, 75, 41, 46, 82, 97, 99, 121, 155, 172, 189, 209, 211, 204, 192, 145, 97, 68, 12, -70, -136, -177, -209, -228, -240, -243, -236, -236, -233, -216, -199, -199, -194, -172, -165, -175, -165, -145, -145, -155, -163, -155, -150, -167, -170, -148, -155, -163, -153, -145, -155, -167, -163, -141, -131, -124, -102])
('ECG', 1746700053339570170, [-99, -119, -143, -172, -177, -163, -160, -158, -150, -155, -145, -19, 175, 68, -542, -1104, -851, -165, 19, -65, 36, 87, 31, 43, 80, 63, 60, 97, 116, 114, 121, 141, 165, 189, 214, 223, 216, 204, 189, 155, 107, 48, -24, -97, -153, -194, -231, -253, -250, -245, -245, -238, -221, -209, -206, -201, -187, -187, -182, -170, -167, -165, -160, -160, -158, -150, -143, -158, -175, -172, -170, -170, -170])
('ECG', 1746700053901243788, [-167, -160, -153, -155, -155, -153, -143, -121, -104, -109, -133, -177, -189, -163, -160, -172, -165, -160, -155, -107, 58, 180, -155, -893, -1138, -501, -2, -53, -24, 90, 48, 24, 72, 77, 68, 85, 97, 107, 116, 126, 158, 194, 201, 204, 218, 218, 194, 165, 133, 87, 12, -55, -114, -175, -216, -236, -245, -240, -248, -255, -233, -211, -201, -189, -182, -167, -158, -175, -182, -167, -160, -155, -155])
('ECG', 1746700054462927578, [-167, -165, -158, -163, -165, -158, -153, -158, -167, -160, -143, -145, -172, -177, -141, -119, -116, -107, -99, -116, -148, -170, -175, -184, -170, -128, -126, -138, -80, 116, 240, -107, -861, -1124, -489, 9, -41, -9, 109, 85, 53, 80, 85, 85, 104, 114, 114, 141, 165, 160, 182, 218, 228, 231, 226, 206, 170, 119, 77, 31, -48, -131, -175, -204, -233, -243, -240, -240, -238, -221, -211, -206, -194])
('ECG', 1746700055024606280, [-182, -177, -182, -184, -172, -170, -170, -158, -155, -180, -194, -172, -167, -189, -189, -182, -189, -192, -182, -189, -194, -184, -170, -160, -167, -160, -143, -158, -189, -204, -206, -201, -199, -199, -199, -209, -192, -24, 189, 31, -669, -1202, -798, -167, -111, -119, 29, 21, -26, 17, 29, 2, 12, 43, 53, 63, 87, 107, 126, 153, 160, 155, 155, 143, 107, 77, 43, -17, -82, -136, -184, -223, -240])
('ECG', 1746700055586295156, [-253, -265, -282, -282, -260, -245, -245, -233, -206, -197, -201, -197, -182, -170, -175, -187, -187, -177, -182, -184, -180, -184, -199, -184, -170, -184, -197, -192, -177, -153, -150, -158, -148, -141, -145, -158, -187, -204, -197, -189, -192, -184, -172, -145, -9, 187, 60, -588, -1143, -832, -199, -75, -92, 34, 41, 2, 41, 63, 38, 36, 53, 70, 94, 107, 109, 136, 167, 177, 180, 177, 155, 128, 94])
('ECG', 1746700056147984034, [55, 12, -51, -119, -167, -206, -236, -245, -250, -248, -233, -236, -236, -214, -194, -187, -184, -187, -182, -175, -170, -163, -163, -163, -158, -160, -175, -180, -158, -136, -155, -194, -199, -177, -170, -177, -160, -145, -141, -119, -104, -121, -145, -172, -187, -175, -175, -182, -175, -165, -143, -19, 170, 55, -574, -1112, -793, -133, -9, -87, 29, 75, 24, 34, 72, 68, 60, 82, 109, 114, 114, 131, 165])
('ECG', 1746700056709672910, [199, 218, 221, 211, 194, 170, 136, 102, 51, -29, -102, -155, -199, -214, -211, -223, -243, -233, -218, -214, -201, -192, -187, -172, -158, -150, -153, -150, -145, -145, -155, -163, -150, -143, -153, -155, -150, -150, -148, -141, -136, -143, -153, -153, -138, -126, -114, -94, -97, -121, -145, -158, -155, -153, -153, -150, -163, -155, -104, 36, 192, 4, -678, -1121, -656, -58, -14, -31, 75, 58, 31, 72, 75])
('ECG', 1746700057271361786, [68, 90, 104, 102, 104, 131, 172, 189, 189, 201, 231, 238, 206, 167, 141, 94, 31, -24, -90, -165, -218, -231, -231, -238, -245, -231, -218, -221, -206, -182, -175, -177, -177, -163, -155, -160, -158, -148, -155, -165, -148, -145, -163, -163, -155, -163, -160, -160, -170, -165, -153, -163, -163, -138, -124, -114, -94, -97, -138, -184, -177, -163, -175, -165, -148, -160, -167, -75, 155, 226, -248, -1002, -1056])
('ECG', 1746700057833050662, [-352, -21, -97, -4, 60, 9, 24, 63, 60, 65, 75, 80, 94, 109, 119, 143, 177, 182, 177, 194, 194, 160, 131, 97, 31, -34, -97, -163, -204, -236, -262, -267, -265, -274, -274, -262, -250, -223, -204, -218, -218, -189, -180, -197, -201, -201, -194, -175, -175, -192, -194, -189, -192, -184, -182, -194, -199, -189, -184, -187, -180, -165, -153, -136, -126, -145, -170, -184, -199, -197, -182, -189, -194])
('ECG', 1746700058394739538, [-180, -170, -60, 163, 109, -506, -1119, -873, -211, -65, -111, 19, 51, 0, 24, 53, 38, 38, 65, 77, 75, 97, 126, 141, 155, 182, 194, 175, 160, 143, 104, 63, 17, -55, -121, -170, -204, -228, -245, -250, -243, -243, -248, -233, -216, -206, -197, -192, -182, -170, -172, -180, -170, -165, -170, -165, -153, -158, -187, -189, -163, -160, -172, -175, -180, -172, -163, -167, -158, -141, -143, -128, -107])
('ECG', 1746700058956428416, [-116, -143, -172, -184, -167, -158, -158, -153, -150, -141, -43, 138, 94, -430, -1036, -917, -240, 21, -53, 31, 94, 41, 38, 75, 72, 72, 87, 102, 114, 124, 141, 167, 197, 223, 236, 226, 199, 180, 163, 126, 72, -4, -85, -138, -180, -201, -209, -218, -226, -214, -206, -204, -187, -177, -175, -172, -167, -155, -148, -153, -155, -138, -136, -150, -148, -133, -136, -148, -150, -148, -148, -148, -145])
('ECG', 1746700059518117292, [-145, -143, -148, -153, -124, -94, -109, -109, -87, -92, -119, -150, -167, -148, -136, -148, -145, -138, -138, -60, 138, 177, -287, -983, -1029, -343, 34, -36, 14, 85, 43, 51, 92, 87, 80, 97, 104, 109, 128, 138, 150, 184, 214, 214, 206, 204, 189, 155, 114, 58, -17, -82, -131, -172, -211, -231, -228, -233, -238, -233, -228, -216, -194, -187, -182, -167, -153, -155, -175, -180, -160, -153, -167])
('ECG', 1746700060079806168, [-167, -153, -148, -165, -170, -155, -158, -167, -163, -170, -175, -155, -160, -167, -141, -131, -136, -109, -92, -109, -143, -177, -180, -160, -153, -167, -172, -165, -126, 26, 204, 9, -695, -1175, -727, -77, -7, -51, 51, 60, 34, 65, 85, 68, 60, 82, 104, 114, 138, 170, 180, 187, 209, 216, 204, 189, 180, 145, 80, 9, -48, -109, -158, -194, -228, -248, -240, -238, -250, -243, -221, -204, -197])
('ECG', 1746700060641495044, [-201, -189, -160, -153, -170, -172, -163, -167, -175, -165, -158, -170, -177, -170, -155, -155, -165, -172, -182, -180, -167, -163, -167, -163, -138, -116, -116, -116, -128, -187, -216, -184, -170, -184, -184, -172, -163, -58, 175, 184, -396, -1121, -1019, -299, -46, -111, 2, 51, 0, 31, 55, 29, 36, 60, 68, 77, 94, 99, 119, 155, 167, 165, 167, 158, 133, 97, 55, 4, -55, -124, -184, -216, -238])
('ECG', 1746700061203183920, [-270, -284, -267, -260, -270, -262, -243, -221, -209, -214, -214, -201, -199, -194, -177, -187, -209, -204, -197, -204, -197, -180, -189, -216, -204, -184, -192, -197, -192, -184, -177, -163, -138, -133, -155, -184, -214, -218, -199, -187, -194, -199, -189, -141, 29, 192, -77, -824, -1175, -613, -102, -111, -65, 43, 9, -2, 36, 31, 24, 51, 70, 80, 99, 111, 119, 138, 155, 155, 163, 167, 150, 114, 82])
('ECG', 1746700061764877884, [53, -4, -92, -143, -177, -231, -270, -260, -250, -257, -243, -218, -218, -214, -201, -201, -201, -194, -189, -177, -167, -165, -170, -175, -172, -172, -172, -165, -177, -204, -194, -165, -165, -189, -184, -153, -141, -145, -138, -133, -153, -167, -175, -177, -184, -194, -194, -182, -170, -141, 4, 187, -9, -703, -1146, -698, -116, -70, -77, 41, 41, 9, 41, 58, 48, 55, 72, 97, 111, 109, 121, 155, 170])
('ECG', 1746700062326561672, [177, 189, 177, 150, 126, 97, 58, -2, -65, -114, -160, -204, -228, -236, -245, -257, -243, -221, -218, -216, -201, -180, -175, -184, -172, -150, -165, -172, -155, -155, -175, -177, -163, -153, -155, -165, -170, -158, -155, -170, -170, -160, -155, -138, -114, -104, -114, -131, -153, -175, -177, -165, -165, -163, -158, -153, -121, 17, 172, -24, -681, -1104, -671, -68, -4, -53, 51, 77, 51, 65, 75, 75, 85])
('ECG', 1746700062888250550, [99, 111, 119, 124, 141, 189, 218, 209, 214, 221, 206, 177, 138, 94, 38, -36, -111, -158, -182, -209, -233, -238, -231, -226, -214, -197, -194, -192, -170, -158, -163, -163, -158, -153, -150, -148, -141, -138, -153, -160, -148, -141, -141, -153, -160, -150, -141, -143, -145, -138, -133, -126, -107, -97, -104, -119, -158, -165, -138, -145, -158, -148, -150, -150, -92, 97, 204, -170, -897, -1099, -464, 7, -34])
('ECG', 1746700063449939426, [-4, 90, 58, 43, 80, 80, 65, 82, 114, 116, 109, 131, 172, 201, 216, 228, 233, 206, 172, 163, 138, 80, 17, -51, -119, -177, -216, -233, -238, -228, -221, -226, -218, -201, -192, -184, -180, -165, -148, -150, -155, -141, -133, -150, -150, -131, -141, -153, -138, -138, -160, -150, -133, -143, -145, -128, -138, -163, -143, -114, -114, -102, -87, -94, -121, -153, -160, -153, -148, -133, -116, -138, -163])
('ECG', 1746700064011628302, [-63, 170, 177, -352, -1043, -985, -265, 36, -53, 38, 119, 53, 36, 80, 87, 82, 92, 94, 109, 143, 175, 187, 189, 206, 228, 226, 209, 182, 138, 97, 58, -2, -68, -131, -187, -218, -233, -240, -231, -211, -218, -238, -216, -180, -182, -194, -182, -160, -153, -155, -158, -150, -153, -163, -155, -148, -167, -182, -167, -148, -150, -158, -160, -172, -170, -153, -150, -158, -153, -148, -136, -111, -102])
('ECG', 1746700064573317178, [-116, -133, -153, -170, -175, -170, -163, -163, -160, -138, -43, 163, 204, -326, -1073, -1031, -284, 36, -63, 4, 80, 34, 31, 70, 70, 65, 87, 109, 114, 121, 143, 160, 182, 201, 204, 197, 189, 160, 116, 90, 53, -12, -87, -143, -187, -221, -236, -243, -255, -250, -240, -240, -226, -199, -197, -192, -167, -167, -175, -170, -172, -172, -167, -177, -184, -180, -175, -160, -160, -177, -187, -184, -187])
('ECG', 1746700065135006054, [-180, -155, -150, -177, -180, -165, -170, -163, -143, -138, -124, -104, -104, -131, -172, -184, -167, -160, -165, -160, -163, -148, -38, 172, 209, -301, -1056, -1056, -309, 21, -75, 4, 82, 36, 41, 70, 55, 70, 107, 107, 107, 131, 150, 165, 189, 211, 226, 216, 204, 197, 148, 87, 46, 7, -58, -136, -175, -189, -216, -233, -233, -228, -228, -223, -211, -199, -175, -155, -163, -165, -158, -163, -160])
('ECG', 1746700065696694930, [-148, -150, -165, -165, -153, -153, -172, -167, -158, -167, -167, -160, -160, -160, -160, -158, -150, -141, -138, -126, -102, -104, -150, -184, -175, -163, -177, -177, -158, -167, -177, -92, 124, 236, -163, -958, -1155, -474, -48, -99, -17, 68, 12, 17, 60, 43, 41, 72, 75, 68, 97, 124, 131, 160, 189, 182, 180, 180, 155, 116, 75, 26, -36, -111, -158, -180, -226, -272, -267, -253, -272, -277, -255])
('ECG', 1746700066258378722, [-245, -243, -226, -214, -206, -184, -175, -184, -187, -184, -187, -194, -197, -189, -192, -197, -192, -189, -192, -184, -182, -189, -184, -177, -184, -192, -175, -136, -128, -153, -158, -172, -206, -204, -182, -182, -182, -187, -204, -148, 58, 216, -77, -839, -1175, -569, -75, -114, -48, 68, 12, -4, 53, 58, 31, 36, 55, 75, 104, 119, 121, 148, 182, 189, 182, 172, 150, 116, 82, 41, -14, -77, -136])
('ECG', 1746700066820072684, [-180, -209, -236, -255, -272, -267, -243, -240, -240, -216, -197, -189, -194, -194, -175, -167, -177, -175, -175, -180, -182, -172, -165, -182, -192, -182, -177, -177, -180, -192, -192, -187, -187, -177, -165, -155, -136, -138, -170, -189, -197, -206, -204, -199, -197, -197, -192, -163, -36, 131, -36, -705, -1182, -771, -131, -38, -80, 36, 53, 4, 31, 72, 68, 53, 65, 90, 104, 116, 141, 163, 175, 197, 211])
('ECG', 1746700067381761560, [211, 194, 155, 111, 72, 19, -55, -128, -177, -194, -214, -240, -240, -228, -223, -226, -228, -216, -197, -192, -194, -175, -150, -163, -175, -158, -145, -155, -155, -143, -150, -175, -170, -150, -153, -165, -167, -160, -148, -153, -163, -158, -148, -136, -111, -99, -111, -131, -160, -177, -165, -155, -163, -163, -155, -145, -43, 163, 145, -401, -1060, -956, -243, 41, -58, 14, 90, 48, 48, 75, 68, 70, 92])
('ECG', 1746700067943450436, [107, 109, 121, 150, 172, 182, 206, 231, 231, 209, 189, 158, 107, 58, -2, -92, -167, -197, -216, -240, -248, -248, -253, -245, -228, -214, -204, -194, -184, -180, -180, -182, -170, -160, -170, -170, -163, -163, -155, -143, -163, -184, -165, -148, -165, -175, -163, -163, -170, -150, -141, -141, -107, -94, -124, -145, -158, -167, -170, -177, -163, -148, -165, -165, -82, 114, 209, -158, -883, -1099, -476, -19, -60])
('ECG', 1746700068505139312, [-14, 77, 38, 31, 72, 70, 63, 75, 90, 107, 126, 138, 153, 175, 209, 223, 206, 206, 206, 158, 99, 58, 0, -72, -141, -189, -236, -257, -255, -270, -277, -257, -248, -243, -228, -216, -211, -204, -199, -180, -165, -180, -199, -194, -182, -167, -172, -187, -184, -184, -187, -172, -175, -194, -197, -184, -175, -165, -158, -138, -124, -138, -170, -192, -189, -184, -192, -184, -172, -182, -194, -133, 72])
('ECG', 1746700069066828188, [206, -143, -893, -1129, -501, -51, -119, -65, 53, 21, 17, 65, 55, 36, 55, 85, 94, 92, 102, 126, 155, 182, 197, 206, 194, 158, 131, 97, 41, -9, -72, -148, -201, -221, -238, -253, -253, -248, -248, -238, -228, -218, -192, -187, -197, -189, -170, -160, -175, -182, -170, -165, -163, -163, -167, -170, -172, -172, -155, -158, -175, -177, -177, -165, -138, -126, -114, -111, -124, -143, -175, -182, -163])
('ECG', 1746700069628517066, [-165, -177, -170, -155, -136, -29, 155, 65, -532, -1102, -841, -158, 19, -60, 36, 87, 34, 41, 80, 87, 90, 104, 116, 131, 145, 163, 199, 221, 216, 223, 240, 231, 189, 141, 109, 75, 0, -87, -148, -175, -197, -226, -231, -214, -223, -233, -199, -170, -177, -177, -160, -158, -155, -145, -148, -150, -141, -136, -143, -145, -143, -145, -143, -141, -136, -141, -155, -155, -143, -148, -143, -116, -102])
('ECG', 1746700070190205942, [-97, -97, -109, -143, -167, -165, -155, -158, -150, -136, -138, -109, 63, 218, -65, -788, -1129, -564, 7, -4, -34, 77, 85, 60, 68, 63, 70, 92, 109, 124, 141, 148, 160, 197, 228, 226, 216, 231, 218, 165, 128, 97, 26, -55, -126, -170, -194, -231, -245, -226, -231, -240, -228, -228, -221, -194, -175, -165, -158, -170, -170, -153, -150, -158, -160, -158, -165, -160, -141, -148, -170, -163, -145])
('ECG', 1746700070751894818, [-160, -167, -160, -163, -148, -119, -102, -99, -109, -128, -145, -158, -163, -165, -160, -153, -148, -143, -82, 119, 223, -180, -924, -1090, -430, -12, -68, -2, 94, 41, 24, 72, 80, 68, 80, 99, 111, 124, 141, 170, 199, 209, 214, 228, 221, 192, 158, 119, 68, 2, -82, -158, -201, -226, -250, -260, -255, -253, -250, -243, -236, -221, -201, -197, -199, -192, -182, -184, -184, -177, -182, -182, -182])
('ECG', 1746700071313583694, [-187, -182, -172, -172, -184, -199, -197, -187, -182, -177, -175, -175, -148, -124, -143, -182, -197, -194, -197, -197, -199, -197, -187, -182, -141, 21, 163, -131, -880, -1185, -576, -75, -107, -63, 53, 24, 2, 29, 26, 29, 55, 58, 51, 75, 99, 126, 165, 182, 182, 189, 184, 158, 119, 77, 31, -34, -107, -158, -194, -223, -238, -253, -270, -265, -255, -255, -240, -218, -218, -206, -172, -175, -197])
('ECG', 1746700071875247140, [-182, -155, -170, -192, -175, -165, -177, -182, -182, -172, -170, -175, -170, -175, -177, -158, -148, -141, -131, -133, -138, -155, -189, -187, -170, -175, -180, -177, -180, -160, -41, 153, 92, -498, -1131, -929, -231, -19, -87, 12, 58, 14, 34, 53, 41, 55, 65, 63, 85, 114, 128, 150, 182, 194, 189, 197, 192, 155, 116, 80, 26, -43, -114, -163, -194, -216, -236, -240, -231, -231, -236, -218, -201])
('ECG', 1746700072436930928, [-206, -194, -163, -155, -170, -163, -141, -141, -143, -141, -143, -143, -145, -148, -143, -150, -155, -143, -133, -141, -150, -143, -119, -107, -99, -97, -111, -133, -158, -170, -150, -145, -170, -158, -124, -119, -31, 167, 87, -525, -1092, -834, -138, 51, -58, 29, 94, 48, 58, 94, 80, 75, 97, 119, 133, 136, 153, 187, 209, 223, 243, 240, 218, 199, 165, 107, 46, -12, -85, -150, -180, -197, -226])
('ECG', 1746700072998619806, [-243, -231, -206, -197, -209, -216, -192, -165, -160, -150, -143, -150, -153, -145, -141, -138, -138, -141, -141, -150, -160, -138, -126, -153, -160, -136, -133, -138, -128, -114, -94, -85, -99, -126, -150, -148, -150, -165, -158, -136, -138, -126, 0, 204, 114, -513, -1104, -846, -155, 24, -55, 51, 104, 60, 77, 99, 80, 82, 104, 114, 128, 145, 155, 192, 228, 236, 240, 248, 238, 214, 172, 119, 55])
('ECG', 1746700073560308682, [-17, -87, -153, -199, -216, -231, -238, -233, -226, -218, -223, -211, -180, -172, -177, -163, -153, -158, -160, -145, -145, -165, -153, -133, -153, -163, -153, -160, -160, -150, -158, -163, -150, -141, -133, -114, -104, -119, -143, -167, -167, -155, -177, -192, -182, -172, -167, -104, 92, 184, -240, -995, -1092, -396, -36, -109, -9, 72, 2, 4, 55, 43, 31, 46, 63, 85, 102, 109, 138, 175, 172, 155, 170])
('ECG', 1746700074121982300, [184, 145, 92, 60, 14, -51, -119, -184, -221, -236, -260, -287, -289, -282, -267, -250, -250, -253, -231, -209, -201, -209, -214, -194, -180, -189, -194, -197, -204, -204, -192, -189, -204, -206, -184, -187, -197, -177, -163, -160, -141, -143, -187, -228, -226, -189, -175, -192, -197, -180, -184, -116, 99, 124, -423, -1109, -1009, -306, -38, -99, 2, 51, -2, 17, 51, 24, 21, 68, 77, 63, 77, 119, 153])
('ECG', 1746700074683655916, [167, 180, 187, 172, 150, 133, 109, 70, 14, -53, -114, -163, -209, -223, -226, -260, -279, -255, -240, -248, -236, -206, -184, -172, -180, -187, -165, -163, -172, -175, -172, -167, -165, -158, -163, -180, -177, -165, -167, -175, -163, -143, -138, -148, -141, -119, -143, -192, -194, -170, -167, -180, -175, -163, -155, -34, 170, 24, -669, -1172, -764, -119, -36, -72, 46, 53, 7, 41, 60, 46, 55, 80, 97])
('ECG', 1746700075245344792, [104, 116, 143, 167, 177, 189, 204, 201, 172, 138, 119, 77, 9, -51, -116, -165, -184, -204, -226, -233, -228, -223, -216, -201, -187, -180, -167, -160, -150, -143, -145, -153, -150, -138, -133, -138, -136, -141, -143, -136, -131, -138, -145, -141, -133, -124, -92, -77, -99, -128, -150, -150, -145, -153, -155, -145, -145, -136, -36, 150, 80, -503, -1075, -844, -158, 41, -48, 58, 121, 55, 55, 94, 97])
('ECG', 1746700075807033668, [107, 114, 107, 119, 141, 160, 187, 204, 233, 262, 257, 238, 206, 160, 116, 60, -21, -97, -150, -187, -187, -192, -238, -243, -201, -192, -209, -201, -177, -160, -141, -136, -158, -163, -153, -150, -150, -150, -141, -133, -133, -143, -158, -153, -143, -155, -160, -143, -131, -111, -94, -99, -109, -136, -177, -177, -148, -163, -184, -167, -155, -158, -26, 204, 72, -639, -1175, -764, -116, -38, -75, 38, 46])
('ECG', 1746700076368692028, [14, 51, 65, 51, 55, 72, 85, 94, 116, 141, 160, 180, 197, 204, 180, 153, 143, 111, 41, -21, -70, -138, -201, -236, -253, -272, -282, -274, -270, -265, -248, -238, -243, -233, -214, -206, -199, -184, -184, -194, -194, -192, -194, -197, -187, -182, -189, -199, -201, -184, -167, -155, -145, -153, -170, -187, -199, -199, -197, -201, -199, -199, -211, -187, -29, 150, -43, -747, -1172, -666, -94, -92, -82])
('ECG', 1746700076930391076, [43, 14, -14, 38, 46, 31, 60, 70, 58, 80, 119, 136, 143, 160, 172, 165, 160, 143, 102, 75, 46, -19, -85, -143, -201, -243, -253, -250, -250, -253, -253, -250, -236, -206, -187, -187, -192, -184, -170, -165, -158, -165, -187, -167, -136, -172, -187, -153, -165, -194, -182, -160, -153, -141, -126, -121, -133, -155, -180, -184, -184, -189, -180, -170, -177, -170, -55, 133, 19, -610, -1136, -812, -177])
('ECG', 1746700077492069780, [-53, -72, 53, 60, 14, 41, 55, 43, 51, 63, 75, 92, 114, 138, 145, 165, 194, 192, 165, 145, 121, 87, 58, 12, -75, -141, -172, -204, -226, -228, -233, -233, -216, -201, -206, -197, -182, -175, -160, -153, -145, -136, -136, -141, -143, -138, -133, -138, -145, -150, -145, -131, -131, -138, -138, -128, -99, -72, -82, -114, -141, -153, -155, -148, -143, -150, -153, -136, -102, 34, 170, -124, -837])
('ECG', 1746700078053758656, [-1104, -506, 26, -4, -21, 82, 75, 41, 63, 92, 102, 94, 99, 116, 131, 153, 177, 187, 199, 218, 223, 206, 192, 172, 141, 87, 2, -75, -121, -175, -233, -240, -231, -238, -243, -223, -197, -197, -206, -192, -172, -172, -170, -160, -150, -141, -145, -155, -148, -145, -143, -136, -136, -143, -160, -172, -163, -141, -133, -145, -131, -99, -99, -136, -167, -167, -155, -175, -187, -165, -160, -160, -99])
('ECG', 1746700078615447532, [90, 218, -150, -900, -1087, -442, -29, -80, -2, 77, 4, 2, 58, 53, 34, 41, 60, 80, 97, 114, 124, 133, 153, 177, 184, 165, 121, 85, 53, 0, -55, -107, -170, -223, -260, -291, -291, -282, -284, -257, -240, -267, -253, -201, -194, -206, -194, -170, -155, -158, -167, -160, -155, -165, -184, -194, -182, -165, -177, -194, -170, -148, -170, -165, -124, -138, -192, -204, -182, -182, -194, -184, -180])
('ECG', 1746700079177105892, [-194, -182, -46, 119, -53, -688, -1099, -674, -133, -99, -85, 41, 24, -9, 21, 21, 12, 34, 41, 38, 53, 90, 128, 138, 141, 163, 155, 119, 111, 104, 53, -2, -65, -131, -128, -126, -192, -226, -233, -267, -279, -272, -255, -223, -223, -233, -204, -184, -189, -187, -201, -206, -155, -124, -155, -170, -158, -172, -197, -197, -189, -192, -199, -184, -138, -121, -128, -138, -180, -216, -204, -197, -197])
('ECG', 1746700079738794768, [-182, -194, -218, -148, 55, 131, -282, -948, -1004, -377, -53, -128, -34, 75, 17, 14, 65, 36, -19, -9, 43, 65, 77, 102, 109, 119, 141, 150, 148, 145, 124, 60, 7, -19, -77, -141, -175, -216, -250, -238, -233, -262, -265, -240, -223, -216, -216, -221, -218, -197, -175, -165, -167, -163, -163, -167, -165, -158, -158, -170, -180, -180, -177, -165, -145, -153, -158, -136, -131, -155, -172, -175, -189])
('ECG', 1746700080300483644, [-197, -187, -177, -177, -177, -138, 7, 99, -226, -844, -970, -413, -53, -87, -24, 46, -12, -12, 41, 29, 12, 51, 77, 72, 90, 102, 92, 104, 131, 136, 138, 131, 99, 90, 75, 4, -65, -119, -167, -194, -216, -250, -272, -260, -228, -214, -221, -214, -192, -184, -194, -199, -194, -167, -136, -133, -148, -150, -145, -138, -133, -148, -172, -187, -187, -172, -172, -160, -99, -60, -99, -150, -170])
('ECG', 1746700080862172520, [-170, -172, -177, -170, -165, -180, -184, -94, 109, 119, -362, -936, -834, -238, -19, -77, 14, 60, 12, 24, 58, 53, 53, 55, 55, 94, 143, 138, 119, 138, 170, 172, 165, 158, 131, 92, 53, 9, -46, -104, -150, -184, -206, -209, -214, -223, -233, -221, -201, -194, -184, -165, -158, -155, -150, -138, -131, -133, -138, -143, -145, -141, -138, -136, -133, -126, -128, -131, -116, -119, -126, -94, -77])
('ECG', 1746700081423841052, [-102, -121, -136, -158, -160, -138, -121, -131, -150, -138, -19, 153, 2, -635, -1082, -688, -65, 29, -24, 72, 77, 24, 63, 97, 77, 85, 111, 116, 124, 136, 148, 177, 204, 209, 221, 223, 187, 155, 145, 116, 46, -36, -102, -143, -170, -192, -209, -211, -197, -182, -182, -177, -160, -150, -150, -138, -128, -133, -128, -109, -111, -126, -133, -133, -121, -109, -109, -114, -131, -131, -107, -109, -131])
('ECG', 1746700081985524842, [-124, -94, -75, -85, -90, -87, -126, -150, -119, -104, -131, -138, -131, -124, -41, 163, 163, -391, -1048, -905, -199, 51, -29, 51, 97, 48, 60, 94, 97, 97, 109, 121, 133, 138, 148, 177, 211, 226, 226, 218, 204, 187, 158, 109, 51, -9, -85, -148, -184, -201, -209, -218, -228, -216, -194, -192, -197, -180, -160, -165, -170, -150, -141, -145, -136, -124, -141, -143, -124, -148, -177, -158, -136])
('ECG', 1746700082547208630, [-143, -158, -153, -136, -124, -121, -111, -99, -97, -121, -167, -187, -163, -153, -172, -167, -145, -143, -60, 148, 111, -493, -1114, -871, -194, -36, -90, 34, 58, -2, 29, 55, 41, 63, 75, 58, 80, 111, 126, 148, 163, 163, 167, 165, 143, 107, 77, 53, 2, -72, -124, -158, -197, -236, -253, -250, -250, -257, -243, -209, -204, -221, -204, -177, -184, -189, -170, -155, -153, -160, -180, -177, -163])
('ECG', 1746700083108897508, [-175, -189, -180, -175, -184, -182, -155, -131, -145, -155, -128, -124, -155, -182, -194, -197, -192, -182, -175, -180, -180, -82, 114, 87, -447, -1068, -936, -274, -55, -124, -4, 55, 4, 12, 43, 43, 36, 48, 55, 63, 80, 107, 131, 143, 150, 158, 155, 128, 97, 85, 55, -17, -90, -126, -158, -206, -233, -223, -228, -250, -245, -221, -214, -218, -211, -182, -160, -167, -172, -158, -150, -158, -160])
('ECG', 1746700083670576212, [-158, -150, -160, -172, -175, -172, -163, -155, -155, -155, -145, -126, -111, -116, -131, -160, -182, -182, -182, -180, -165, -165, -170, -145, -17, 163, 24, -615, -1092, -720, -141, -65, -72, 46, 46, 0, 31, 68, 63, 46, 58, 90, 97, 107, 124, 124, 136, 167, 167, 150, 136, 99, 53, 21, -19, -77, -131, -175, -204, -223, -243, -243, -236, -231, -231, -238, -226, -192, -177, -175, -158, -163, -172])
('ECG', 1746700084232244742, [-160, -153, -170, -170, -150, -158, -182, -177, -165, -177, -182, -155, -141, -145, -138, -126, -133, -141, -155, -175, -177, -184, -192, -180, -172, -167, -85, 111, 128, -355, -970, -912, -287, -26, -99, -21, 41, -4, 4, 41, 41, 48, 55, 46, 58, 102, 119, 116, 141, 165, 145, 131, 136, 99, 65, 60, 14, -70, -136, -180, -206, -218, -236, -245, -243, -233, -233, -231, -206, -192, -199, -187, -160])
('ECG', 1746700084793933618, [-160, -163, -148, -155, -167, -165, -172, -172, -155, -150, -163, -167, -160, -133, -116, -141, -155, -133, -126, -150, -172, -177, -175, -177, -182, -192, -194, -165, -21, 172, 36, -579, -1041, -715, -155, -68, -92, 24, 36, -29, -31, 4, 75, 126, 99, 85, 90, 80, 97, 121, 150, 194, 184, 145, 145, 160, 114, 21, -21, -48, -116, -184, -209, -197, -199, -223, -228, -223, -211, -170, -138, -136, -145])
('ECG', 1746700085355622494, [-153, -138, -114, -111, -133, -143, -133, -131, -136, -153, -148, -77, -63, -160, -184, -107, -90, -126, -111, -87, -104, -111, -126, -150, -116, -109, -182, -194, -155, -165, -80, 150, 155, -360, -963, -824, -187, 2, -75, 36, 99, 51, 51, 92, 97, 77, 85, 77, 65, 97, 121, 124, 153, 192, 192, 172, 163, 150, 102, 38, -2, -36, -90, -148, -194, -214, -214, -214, -211, -209, -197, -172, -180])
('ECG', 1746700085917311370, [-201, -180, -148, -153, -160, -136, -121, -124, -128, -133, -126, -131, -143, -145, -148, -138, -136, -150, -133, -94, -92, -97, -94, -114, -145, -165, -158, -143, -150, -153, -145, -150, -99, 87, 177, -221, -912, -1012, -362, 21, -51, -2, 77, 29, 41, 90, 65, 34, 58, 97, 109, 111, 136, 153, 165, 201, 211, 172, 150, 158, 133, 80, 34, -12, -72, -131, -175, -206, -236, -240, -226, -226, -226])
('ECG', 1746700086478969730, [-201, -182, -180, -155, -145, -172, -172, -141, -128, -138, -141, -128, -138, -155, -153, -145, -163, -163, -124, -126, -165, -150, -114, -109, -104, -97, -119, -158, -177, -160, -148, -160, -163, -150, -150, -99, 102, 204, -189, -897, -1043, -420, -31, -82, -7, 82, 38, 26, 58, 63, 65, 68, 65, 75, 104, 126, 143, 150, 155, 172, 177, 150, 133, 124, 80, 21, -26, -72, -136, -194, -211, -206, -238])
('ECG', 1746700087040668778, [-272, -253, -223, -223, -206, -163, -155, -182, -175, -158, -170, -165, -155, -160, -148, -138, -158, -160, -136, -143, -167, -177, -175, -138, -111, -131, -128, -119, -153, -177, -170, -175, -182, -172, -163, -170, -167, -70, 116, 63, -506, -1053, -776, -177, -63, -82, 34, 26, -14, 38, 63, 41, 43, 55, 72, 94, 87, 94, 128, 155, 172, 177, 150, 131, 121, 77, 24, -9, -63, -131, -175, -206, -218])
('ECG', 1746700087602347482, [-214, -233, -262, -248, -209, -194, -201, -201, -187, -163, -143, -143, -155, -158, -143, -143, -153, -138, -138, -160, -160, -148, -138, -141, -155, -158, -124, -90, -109, -131, -131, -160, -182, -170, -170, -180, -165, -160, -155, -19, 170, 9, -620, -1048, -659, -104, -55, -77, 43, 58, 2, 26, 58, 41, 48, 87, 94, 82, 97, 128, 138, 150, 177, 180, 143, 124, 119, 87, 43, -2, -80, -158, -199])
('ECG', 1746700088164016014, [-214, -221, -238, -248, -228, -226, -245, -236, -204, -184, -170, -170, -192, -180, -138, -143, -148, -107, -138, -226, -206, -153, -167, -165, -128, -133, -145, -133, -131, -124, -111, -136, -160, -160, -177, -187, -177, -177, -167, -141, -136, -34, 128, -82, -715, -1019, -552, -70, -48, -36, 41, 19, 12, 70, 65, 2, 7, 43, 55, 80, 97, 97, 131, 167, 172, 165, 158, 138, 82, 31, 9, -41, -109])
('ECG', 1746700088725694716, [-143, -172, -223, -253, -223, -194, -233, -287, -257, -194, -194, -201, -175, -172, -189, -180, -158, -141, -150, -187, -177, -133, -150, -192, -187, -163, -163, -167, -165, -138, -99, -114, -148, -133, -148, -201, -201, -172, -175, -180, -165, -167, -150, -21, 126, -26, -605, -1002, -632, -116, -80, -102, 21, 41, 2, 21, 34, 24, 48, 70, 55, 36, 46, 94, 136, 136, 136, 153, 165, 141, 85, 38, 14])
('ECG', 1746700089287383592, [-29, -92, -150, -194, -218, -214, -194, -218, -282, -287, -238, -218, -228, -214, -192, -201, -184, -148, -167, -182, -155, -145, -153, -163, -172, -167, -163, -192, -216, -187, -158, -155, -141, -109, -111, -155, -192, -189, -182, -194, -197, -177, -170, -177, -172, -82, 87, 26, -489, -983, -785, -226, -43, -75, -2, 31, 12, 7, -4, -7, 24, 51, 68, 70, 65, 87, 119, 128, 119, 107, 107, 99, 87])
('ECG', 1746700089849041952, [85, 70, -9, -126, -160, -165, -221, -248, -238, -231, -221, -238, -255, -240, -228, -240, -228, -187, -170, -197, -206, -165, -143, -160, -153, -155, -197, -187, -143, -153, -187, -201, -187, -158, -160, -170, -133, -116, -145, -165, -182, -194, -201, -206, -197, -180, -182, -180, -48, 109, -92, -693, -1021, -591, -104, -99, -97, 55, 75, 0, -2, 41, 29, 4, 38, 70, 77, 94, 87, 90, 143, 184, 160])
('ECG', 1746700090410730828, [104, 75, 90, 94, 51, -14, -77, -143, -197, -206, -218, -233, -221, -211, -226, -209, -145, -128, -184, -218, -184, -150, -138, -114, -104, -133, -136, -114, -131, -145, -136, -136, -143, -131, -111, -104, -121, -145, -119, -72, -92, -141, -145, -126, -141, -167, -158, -143, -158, -155, -82, 70, 109, -299, -953, -995, -345, 14, -43, 9, 58, 12, 29, 68, 65, 60, 70, 90, 97, 131, 170, 128, 72])
('ECG', 1746700090972419704, [124, 192, 184, 163, 153, 131, 99, 41, -36, -77, -104, -160, -209, -228, -218, -197, -197, -223, -236, -197, -150, -158, -172, -155, -141, -138, -121, -128, -163, -158, -131, -131, -141, -143, -145, -155, -155, -138, -128, -133, -121, -107, -97, -85, -138, -209, -201, -170, -150, -131, -143, -150, -109, 34, 119, -221, -868, -1012, -442, -51, -80, -26, 60, 41, 41, 55, 29, 19, 29, 38, 68, 102, 111])
('ECG', 1746700091534088236, [114, 131, 167, 199, 167, 107, 109, 114, 70, 34, -17, -104, -150, -160, -187, -221, -238, -238, -236, -228, -218, -218, -211, -197, -182, -160, -148, -160, -153, -128, -133, -158, -163, -165, -167, -160, -155, -155, -153, -138, -133, -141, -131, -128, -138, -148, -167, -180, -175, -165, -167, -182, -180, -150, -43, 99, -58, -664, -1107, -747, -145, -31, -53, 58, 70, 24, 41, 75, 80, 41, 34, 90, 111])
('ECG', 1746700092095772026, [97, 121, 141, 138, 175, 201, 158, 141, 145, 87, 31, 19, -36, -128, -170, -184, -204, -211, -228, -236, -209, -197, -211, -199, -170, -160, -155, -153, -150, -133, -128, -153, -160, -148, -155, -165, -141, -126, -145, -150, -153, -158, -136, -114, -104, -116, -143, -155, -175, -201, -177, -138, -138, -158, -150, -114, 17, 148, -141, -832, -1082, -545, -68, -43, -17, 60, 43, 43, 75, 70, 46, 51, 77])
('ECG', 1746700092657455814, [82, 80, 109, 141, 153, 170, 192, 189, 160, 136, 121, 94, 48, -12, -70, -114, -158, -194, -201, -214, -243, -238, -206, -211, -214, -180, -167, -172, -153, -136, -136, -136, -148, -153, -141, -143, -148, -136, -131, -150, -160, -138, -131, -136, -116, -97, -109, -119, -124, -155, -167, -145, -150, -163, -155, -153, -111, 34, 131, -136, -732, -1053, -620, -65, -2, -34, 53, 68, 48, 55, 34, 21, 63])
('ECG', 1746700093219139606, [92, 82, 87, 107, 121, 145, 163, 167, 175, 165, 133, 111, 77, 19, -41, -99, -143, -167, -187, -204, -228, -228, -211, -231, -223, -184, -182, -192, -163, -141, -145, -163, -177, -155, -126, -143, -155, -150, -163, -170, -145, -121, -114, -133, -141, -121, -133, -145, -136, -148, -163, -148, -153, -187, -194, -165, -145, -94, 65, 90, -357, -946, -907, -326, -60, -94, -4, 63, 31, 34, 55, 41, 38])
('ECG', 1746700093780803050, [70, 85, 85, 94, 94, 109, 141, 141, 131, 150, 167, 131, 72, 53, 34, -17, -90, -170, -209, -211, -214, -221, -231, -221, -197, -194, -199, -192, -177, -160, -153, -153, -145, -143, -148, -138, -124, -131, -165, -175, -141, -121, -150, -160, -133, -119, -111, -97, -92, -145, -201, -175, -136, -153, -163, -145, -133, -97, 4, 60, -189, -744, -1004, -588, -97, -4, -4, 41, 31, 55, 97, 41, -2])
('ECG', 1746700094342491926, [55, 80, 46, 82, 141, 138, 150, 199, 197, 163, 153, 155, 148, 119, 65, 9, -46, -104, -145, -184, -236, -238, -218, -226, -211, -175, -165, -163, -141, -145, -182, -192, -170, -153, -145, -136, -131, -116, -126, -192, -197, -145, -155, -163, -126, -114, -119, -126, -133, -133, -165, -211, -187, -145, -158, -180, -175, -160, -104, 38, 24, -423, -961, -883, -306, -46, -87, -21, 17, -19, 0, 4, -17])
('ECG', 1746700094904160458, [12, 43, 51, 77, 85, 53, 46, 80, 119, 148, 155, 124, 90, 65, 21, -34, -82, -121, -172, -228, -255, -257, -245, -248, -272, -262, -226, -214, -201, -184, -197, -204, -189, -170, -170, -177, -184, -189, -189, -197, -184, -163, -177, -182, -158, -148, -136, -116, -138, -184, -194, -201, -216, -192, -175, -180, -170, -138, -12, 104, -184, -839, -1053, -520, -94, -90, -26, 70, 19, -7, 43, 38, 12])
('ECG', 1746700095465839160, [48, 60, 38, 65, 114, 128, 141, 143, 111, 107, 138, 133, 90, 63, 31, -34, -97, -138, -180, -214, -211, -199, -236, -277, -236, -187, -192, -180, -160, -163, -158, -153, -180, -197, -160, -119, -128, -138, -126, -141, -165, -160, -153, -141, -111, -124, -148, -124, -109, -136, -160, -155, -153, -160, -150, -143, -148, -126, -60, 68, 14, -496, -1012, -783, -182, -36, -82, 38, 65, 12, 58, 87, 48])
('ECG', 1746700096027528036, [53, 92, 99, 104, 104, 92, 119, 160, 170, 165, 170, 155, 128, 111, 80, 4, -65, -104, -158, -199, -197, -211, -223, -194, -189, -214, -201, -177, -172, -170, -167, -153, -136, -133, -126, -124, -160, -175, -133, -114, -138, -163, -158, -153, -160, -148, -119, -111, -121, -109, -107, -133, -150, -145, -155, -182, -180, -155, -143, -58, 121, 65, -467, -997, -817, -204, 2, -77, -14, 55, 38, 46, 75])
('ECG', 1746700096589186396, [75, 65, 92, 116, 72, 53, 124, 160, 150, 158, 177, 184, 158, 121, 104, 75, 26, -7, -70, -177, -231, -216, -218, -231, -209, -184, -201, -214, -180, -160, -155, -138, -153, -180, -160, -116, -97, -109, -155, -206, -182, -126, -153, -180, -136, -116, -131, -114, -94, -92, -87, -70, -90, -153, -158, -90, -68, -184, -243, -94, -19, -19, 136, 65, -547, -995, -596, -21, 60, 9, -4, -48, 7])
('ECG', 1746700097150875272, [197, 277, 160, 148, 153, -26, -68, 26, 48, 116, 221, 255, 301, 372, 318, 211, 206, 223, 177, 143, 148, 94, 17, -9, -31, -48, -48, -43, -14, -17, -55, -63, -48, -51, -58, -97, -72, 160, 223, -148, -338, -131, -58, -124, -97, -94, -121, -77, -53, -70, -63, -102, -167, -143, -104, -109, -121, -150, -160, -150, -182, -155, 38, 121, -238, -820, -893, -333, -14, -124, -97, 26, 17])
('ECG', 1746700097712548890, [-12, 24, 48, 31, 41, 77, 70, 38, 34, 55, 104, 148, 153, 136, 133, 114, 63, 26, -9, -68, -109, -165, -226, -231, -243, -277, -257, -236, -236, -218, -216, -218, -163, -131, -182, -216, -189, -170, -163, -148, -163, -167, -141, -148, -177, -165, -131, -138, -170, -160, -119, -116, -131, -143, -167, -177, -163, -145, -155, -182, -184, -114, 48, 41, -411, -970, -895, -291, -31, -87, -2, 55, 2])
('ECG', 1746700098274222506, [4, 51, 60, 55, 53, 53, 68, 90, 87, 114, 167, 153, 124, 150, 136, 82, 72, 65, 12, -60, -124, -165, -177, -189, -228, -238, -199, -209, -236, -197, -165, -182, -175, -150, -160, -175, -163, -141, -116, -119, -143, -148, -150, -158, -128, -111, -158, -180, -136, -97, -102, -99, -99, -111, -119, -131, -141, -158, -175, -158, -138, -143, -131, -2, 148, -60, -700, -1077, -647, -72, -2, -24, 80])
('ECG', 1746700098835911382, [75, 17, 53, 99, 94, 92, 99, 107, 111, 126, 160, 184, 180, 192, 226, 223, 182, 150, 126, 85, 38, -19, -70, -119, -167, -170, -182, -228, -209, -158, -167, -187, -158, -131, -143, -163, -136, -109, -121, -116, -114, -145, -141, -126, -138, -126, -119, -145, -133, -85, -99, -138, -90, -46, -99, -133, -119, -114, -141, -167, -150, -143, -177, -141, 41, 197, -43, -710, -1058, -581, -53, -34, -26])
('ECG', 1746700099397569742, [82, 48, -12, 26, 63, 60, 80, 102, 87, 77, 124, 170, 172, 184, 201, 177, 160, 165, 136, 82, 38, 4, -46, -111, -158, -177, -204, -253, -267, -233, -226, -236, -228, -211, -194, -184, -194, -214, -194, -163, -184, -218, -197, -170, -184, -194, -175, -165, -167, -180, -197, -187, -180, -172, -153, -148, -172, -197, -206, -206, -172, -167, -236, -233, -48, 116, -55, -596, -1019, -759, -206, -75, -114])
('ECG', 1746700099959258618, [-29, 0, -12, 29, 34, -9, -4, 14, 2, 19, 68, 124, 131, 75, 75, 133, 143, 102, 48, 9, -19, -58, -97, -138, -192, -228, -245, -265, -277, -277, -267, -270, -284, -240, -187, -228, -267, -204, -153, -167, -206, -243, -231, -187, -204, -238, -204, -180, -221, -218, -172, -155, -170, -211, -206, -175, -197, -221, -209, -172, -177, -257, -265, -165, -48, -21, -291, -815, -963, -469, -92, -116, -75])
('ECG', 1746700100520916976, [17, 14, 4, -48, -90, -19, 17, -2, 36, 80, 77, 58, 65, 102, 102, 68, 60, 48, 36, 51, 17, -87, -143, -167, -221, -253, -267, -270, -240, -233, -260, -257, -226, -201, -197, -187, -165, -163, -158, -121, -187, -277, -221, -167, -184, -177, -175, -182, -150, -126, -111, -87, -131, -201, -204, -194, -189, -172, -165, -150, -141, -153, -114, -17, -24, -304, -788, -927, -442, -58, -72, -41, 41])
('ECG', 1746700101082590594, [38, 29, 2, -29, -2, 29, 38, 63, 68, 53, 80, 102, 90, 124, 160, 107, 72, 77, 14, -70, -85, -72, -126, -216, -214, -199, -240, -197, -204, -328, -311, -228, -218, -197, -175, -133, -85, -75, -77, -111, -175, -184, -138, -107, -116, -138, -121, -90, -90, -82, -114, -175, -160, -133, -158, -143, -99, -128, -175, -163, -165, -97, 77, 19, -442, -885, -744, -221, -2, -29, 26, 29, -14])
('ECG', 1746700101644264210, [21, 38, 2, 17, 48, 51, 87, 136, 107, 70, 128, 167, 104, 80, 116, 97, 60, 43, -2, -55, -60, -128, -260, -279, -260, -282, -248, -199, -209, -209, -182, -184, -177, -138, -141, -187, -206, -184, -167, -172, -163, -150, -182, -194, -177, -197, -182, -107, -111, -187, -187, -155, -187, -189, -150, -180, -233, -204, -150, -102, 9, 70, -226, -800, -948, -469, -124, -97, 55, 182, 85, -21, -60])
('ECG', 1746700102205922568, [-46, 4, 31, 38, 80, 107, 77, 90, 148, 121, 70, 94, 121, 87, 68, 77, 12, -114, -150, -153, -206, -216, -155, -158, -233, -250, -223, -262, -282, -233, -184, -153, -131, -133, -126, -38, -38, -223, -294, -206, -189, -206, -160, -131, -148, -148, -99, -36, -68, -206, -253, -197, -218, -228, -141, -124, -170, -155, -80, 17, -36, -467, -924, -720, -165, -34, -102, -36, -9, -9, 43, 46, -24])
('ECG', 1746700102767580928, [0, 55, -12, -26, 72, 128, 177, 163, 9, 24, 172, 97, -4, 75, 46, -60, -55, -167, -238, -70, -97, -304, -296, -204, -204, -184, -148, -141, -148, -180, -177, -145, -150, -70, 24, -65, -128, -102, -204, -272, -180, -128, -124, -55, -31, -48, -36, -65, -128, -189, -236, -209, -136, -82, -77, -126, -63, 82, -14, -408, -802, -712, -204, -7, -77, 58, 158, 17, -41, 41, 24, -46, 14])
('ECG', 1746700103329264718, [107, 87, 82, 153, 109, -7, 77, 184, 97, 70, 109, 70, 41, -2, -72, -148, -236, -223, -180, -245, -282, -238, -223, -211, -192, -209, -180, -148, -197, -216, -167, -150, -175, -189, -170, -126, -124, -199, -221, -167, -189, -206, -138, -124, -172, -182, -167, -165, -150, -163, -211, -182, -138, -223, -248, -58, 75, -158, -661, -902, -525, -72, -19, -51, 21, 24, -51, -46, 21, 41, 41, 55, 65])
('ECG', 1746700103890928162, [70, 109, 153, 111, 75, 128, 114, 70, 102, 70, 7, 46, 14, -148, -194, -138, -163, -218, -226, -223, -218, -184, -153, -165, -221, -257, -199, -138, -150, -155, -133, -136, -150, -158, -167, -172, -177, -184, -184, -158, -136, -141, -153, -141, -145, -184, -206, -197, -192, -189, -182, -180, -177, -163, -63, 29, -245, -856, -1053, -530, -77, -75, -58, 41, 36, 4, 9, 14, 26, 41, 46, 65, 102])
('ECG', 1746700104452601780, [121, 94, 68, 92, 136, 121, 87, 97, 90, 34, -14, -29, -60, -128, -172, -209, -255, -245, -204, -201, -211, -189, -148, -150, -158, -126, -126, -163, -150, -128, -160, -170, -148, -131, -136, -148, -138, -121, -128, -160, -165, -124, -97, -109, -116, -136, -172, -172, -138, -133, -163, -160, -131, -19, 138, -43, -688, -1085, -654, -72, 12, 2, 116, 107, 19, 43, 102, 75, 58, 94, 121, 128, 141])
('ECG', 1746700105014275396, [167, 194, 189, 194, 209, 189, 148, 97, 75, 90, 55, -31, -102, -133, -141, -138, -148, -182, -211, -194, -150, -138, -143, -133, -133, -133, -107, -97, -126, -148, -128, -99, -92, -119, -167, -165, -124, -124, -138, -109, -65, -70, -99, -111, -126, -121, -102, -145, -194, -172, -126, -111, -19, 155, 31, -574, -1053, -744, -133, 29, 2, 82, 80, 46, 90, 104, 68, 85, 114, 97, 111, 163, 163])
('ECG', 1746700105575938842, [145, 163, 182, 201, 204, 165, 128, 109, 72, 24, -12, -55, -131, -172, -180, -214, -223, -184, -175, -187, -172, -145, -128, -126, -143, -163, -165, -141, -133, -148, -148, -148, -155, -153, -148, -143, -143, -136, -121, -119, -133, -143, -170, -197, -192, -163, -150, -160, -175, -163, -31, 116, -90, -720, -1077, -647, -133, -68, -31, 60, 38, 26, 75, 63, 21, 43, 85, 90, 97, 133, 133, 109, 128])
('ECG', 1746700106137622630, [158, 153, 133, 116, 92, 60, 24, 2, -31, -121, -194, -184, -180, -209, -201, -182, -192, -182, -145, -136, -165, -177, -148, -131, -148, -148, -124, -114, -133, -145, -131, -136, -175, -180, -153, -128, -111, -119, -128, -136, -138, -148, -197, -209, -165, -153, -163, -94, 68, 48, -435, -1024, -924, -255, 55, -4, 12, 53, 46, 55, 63, 53, 75, 116, 121, 126, 150, 143, 124, 153, 187, 182, 180])
('ECG', 1746700106699280990, [175, 121, 55, 48, 55, -14, -94, -121, -128, -158, -197, -197, -170, -163, -165, -148, -126, -136, -143, -126, -121, -128, -121, -121, -136, -141, -128, -109, -121, -160, -165, -143, -141, -121, -77, -82, -126, -150, -136, -133, -172, -182, -163, -165, -136, 12, 148, -94, -773, -1119, -603, -26, 2, -26, 80, 94, 65, 97, 111, 75, 65, 102, 121, 121, 141, 158, 165, 194, 221, 201, 155, 121, 97])
('ECG', 1746700107260969866, [75, 60, 26, -53, -126, -145, -167, -197, -192, -170, -167, -158, -141, -165, -192, -172, -150, -143, -131, -119, -133, -145, -133, -133, -172, -187, -158, -136, -141, -126, -75, -90, -145, -150, -180, -204, -160, -141, -150, -143, -153, -163, -34, 148, 2, -579, -1002, -710, -187, -65, -48, 72, 92, 55, 75, 87, 80, 94, 121, 90, 41, 75, 138, 145, 148, 163, 155, 138, 121, 75, 38, 34, -2])
('ECG', 1746700107822643484, [-68, -109, -143, -189, -226, -236, -228, -211, -206, -209, -180, -136, -136, -165, -182, -170, -150, -158, -175, -182, -180, -167, -170, -172, -155, -138, -126, -119, -141, -177, -197, -223, -228, -187, -165, -184, -194, -160, -34, 90, -150, -785, -1077, -579, -94, -90, -51, 65, 26, 2, 58, 70, 60, 77, 92, 75, 65, 85, 97, 104, 128, 143, 136, 124, 111, 80, 31, -2, -43, -111, -155, -165, -189])
('ECG', 1746700108384317100, [-218, -214, -201, -201, -172, -143, -163, -182, -165, -163, -165, -128, -104, -136, -150, -138, -136, -141, -160, -170, -136, -109, -126, -128, -111, -143, -192, -184, -160, -163, -175, -175, -165, -131, -7, 97, -172, -820, -1073, -535, -29, -19, -26, 77, 85, 65, 75, 53, 51, 90, 109, 109, 114, 121, 150, 175, 177, 204, 189, 90, 80, 131, 90, 29, 2, -41, -99, -145, -177, -192, -182, -160, -172])
('ECG', 1746700108946005976, [-206, -184, -143, -153, -158, -124, -111, -126, -124, -126, -145, -148, -121, -109, -153, -192, -163, -116, -102, -102, -99, -119, -160, -175, -158, -153, -158, -158, -153, -136, -7, 116, -167, -824, -1051, -510, -46, -29, -4, 63, 46, 53, 72, 55, 58, 90, 104, 97, 92, 107, 136, 158, 189, 194, 145, 109, 114, 90, 21, -26, -31, -55, -111, -150, -175, -194, -201, -189, -177, -199, -194, -143, -124])
('ECG', 1746700109507664336, [-136, -158, -177, -170, -145, -148, -172, -160, -128, -150, -187, -170, -138, -121, -116, -131, -158, -189, -184, -160, -197, -236, -226, -209, -121, 53, 26, -442, -958, -815, -248, -38, -60, -4, 4, 0, 53, 70, 43, 46, 48, 21, 34, 87, 114, 119, 141, 155, 148, 128, 85, 31, 24, 26, -24, -107, -163, -180, -194, -214, -211, -204, -218, -221, -189, -150, -133, -150, -189, -223, -204, -170, -167])
('ECG', 1746700110069353212, [-153, -128, -165, -192, -145, -124, -148, -153, -165, -177, -177, -194, -199, -187, -175, -167, -177, -216, -233, -111, 26, -216, -783, -966, -491, -87, -80, -60, 34, 65, 46, -29, -68, -4, 68, 77, 36, 34, 68, 63, 85, 136, 114, 72, 82, 102, 82, 36, 0, -80, -187, -192, -155, -194, -238, -228, -204, -209, -197, -150, -187, -253, -194, -131, -163, -170, -145, -163, -177, -160, -163, -184, -177])
('ECG', 1746700110631011570, [-136, -119, -163, -204, -182, -177, -211, -204, -177, -189, -201, -187, -180, -138, -24, -51, -433, -900, -827, -289, -46, -92, -14, 43, -29, -48, 0, 0, -9, 12, 31, 46, 82, 94, 75, 90, 102, 63, 65, 99, 92, 55, 7, -58, -109, -145, -189, -216, -209, -214, -231, -209, -182, -204, -216, -182, -167, -180, -175, -158, -138, -111, -124, -158, -145, -150, -192, -180, -158, -163, -136, -104, -148])
('ECG', 1746700111192685188, [-189, -160, -138, -177, -209, -194, -189, -175, -46, 60, -199, -754, -912, -418, -31, -72, -58, 34, 21, 14, 2, -46, -14, 34, 17, 19, 70, 109, 131, 131, 92, 60, 80, 82, 36, 14, 17, -19, -63, -92, -141, -184, -199, -236, -245, -209, -211, -223, -177, -143, -170, -182, -160, -163, -182, -167, -150, -153, -138, -133, -145, -138, -143, -126, -85, -138, -201, -160, -160, -209, -189, -160, -153])
('ECG', 1746700111754358804, [-124, -133, -194, -111, 46, -165, -725, -936, -489, -51, -34, -41, 55, 58, 4, -2, 17, 24, 34, 55, 77, 94, 94, 92, 128, 145, 102, 85, 111, 97, 48, 24, 14, -31, -82, -114, -170, -209, -192, -209, -236, -206, -197, -199, -158, -133, -153, -155, -128, -124, -143, -136, -114, -153, -194, -150, -104, -133, -167, -148, -116, -99, -99, -126, -167, -177, -148, -141, -165, -158, -148, -167, -63])
('ECG', 1746700112316047680, [77, -167, -744, -929, -452, -41, -31, -9, 77, 60, 14, 26, 51, 48, 48, 55, 72, 107, 128, 145, 158, 153, 160, 177, 155, 94, 55, 55, 36, -14, -58, -85, -116, -145, -150, -155, -167, -141, -99, -116, -148, -148, -128, -92, -75, -77, -68, -60, -60, -77, -126, -133, -99, -94, -97, -77, -53, -46, -60, -80, -70, -72, -116, -136, -111, -99, -102, -94, -94, -51, 114, 87, -440])
('ECG', 1746700112877706040, [-973, -766, -133, 72, 9, 97, 145, 90, 75, 87, 97, 124, 133, 143, 170, 167, 143, 163, 216, 238, 218, 192, 163, 145, 124, 90, 51, 7, -38, -77, -124, -155, -143, -131, -158, -160, -111, -107, -119, -94, -94, -107, -92, -77, -82, -92, -111, -121, -107, -99, -90, -77, -104, -119, -77, -48, -63, -65, -72, -107, -126, -128, -121, -111, -107, -114, -107, 12, 175, -41, -720, -1082, -588])
('ECG', 1746700113439394916, [-12, 34, 24, 138, 114, 65, 124, 148, 90, 63, 104, 160, 172, 163, 177, 201, 197, 199, 218, 206, 158, 121, 102, 60, 21, -9, -55, -104, -145, -189, -216, -204, -170, -141, -116, -109, -126, -114, -82, -94, -133, -138, -119, -121, -128, -124, -119, -121, -116, -119, -136, -124, -85, -82, -116, -148, -163, -160, -153, -143, -124, -131, -163, -126, 9, 63, -304, -961, -1068, -425, 26, 7, 36])
('ECG', 1746700114001083792, [92, 29, 24, 102, 107, 72, 90, 124, 141, 153, 165, 167, 167, 172, 187, 189, 158, 145, 165, 121, 14, -43, -58, -90, -145, -189, -206, -206, -184, -148, -141, -158, -155, -133, -143, -160, -143, -131, -138, -150, -150, -131, -136, -163, -167, -160, -148, -116, -121, -150, -138, -145, -182, -197, -192, -167, -148, -187, -226, -90, 85, -155, -817, -1114, -586, -75, -63, -51, 43, 24, 2, 26, 31])
('ECG', 1746700114562742150, [29, 51, 82, 80, 75, 107, 116, 99, 109, 141, 136, 82, 58, 65, 29, -29, -68, -109, -150, -189, -218, -218, -211, -223, -228, -201, -163, -158, -199, -223, -194, -150, -145, -184, -187, -153, -165, -199, -160, -131, -177, -189, -148, -155, -201, -221, -204, -194, -209, -201, -189, -214, -194, -53, 19, -291, -893, -1043, -496, -109, -97, 2, 75, -14, -43, 19, 34, 9, 31, 77, 87, 68, 87])
('ECG', 1746700115124431026, [136, 165, 158, 104, 99, 119, 65, -4, -14, -14, -53, -109, -141, -172, -201, -187, -167, -187, -216, -201, -170, -155, -141, -133, -138, -136, -138, -148, -150, -143, -141, -163, -180, -158, -121, -109, -114, -121, -138, -163, -165, -163, -192, -218, -206, -170, -126, -2, 63, -287, -905, -995, -420, -51, -65, -7, 60, 26, 29, 63, 51, 53, 85, 94, 87, 77, 85, 138, 167, 133, 121, 145, 133])
('ECG', 1746700115686094472, [82, 38, 19, 4, -41, -102, -150, -172, -170, -182, -192, -160, -121, -136, -165, -133, -104, -124, -136, -111, -102, -126, -124, -111, -126, -126, -107, -109, -90, -55, -87, -111, -111, -158, -172, -131, -126, -126, -92, -111, -133, 19, 55, -403, -970, -873, -231, 60, 2, 82, 138, 65, 72, 107, 90, 114, 155, 150, 150, 182, 206, 221, 233, 238, 240, 204, 136, 114, 116, 94, 58, 4, -68])
('ECG', 1746700116247778260, [-114, -109, -141, -206, -201, -153, -160, -177, -136, -119, -145, -167, -187, -189, -141, -94, -114, -145, -133, -133, -143, -138, -153, -150, -119, -99, -121, -182, -167, -114, -236, -338, -206, -111, -138, -9, 126, -194, -866, -1060, -493, -46, -38, -12, 41, 38, 92, 111, 41, -14, -7, 38, 82, 82, 77, 138, 192, 160, 126, 145, 141, 65, -2, -24, -53, -77, -82, -141, -209, -221, -216, -204, -189])
('ECG', 1746700116809462052, [-211, -231, -206, -199, -201, -165, -153, -175, -182, -167, -158, -158, -167, -197, -211, -184, -163, -182, -182, -167, -189, -231, -248, -223, -163, -153, -228, -260, -160, -63, -226, -725, -1041, -652, -102, -7, -82, -63, -41, -36, -9, 19, 17, 19, 46, 63, 60, 68, 77, 82, 97, 90, 41, 26, 68, 72, 41, 12, -48, -119, -145, -167, -209, -250, -260, -226, -194, -197, -192, -155, -136, -133, -141])
('ECG', 1746700117371125496, [-184, -201, -165, -150, -158, -150, -143, -145, -131, -104, -126, -184, -187, -167, -189, -211, -201, -167, -148, -177, -228, -182, 4, 43, -321, -854, -934, -433, -70, -60, -12, 31, 0, 21, 55, 34, 31, 48, 19, 14, 87, 128, 107, 94, 111, 104, 55, 31, 41, 41, 38, 17, -41, -85, -126, -194, -223, -201, -204, -236, -221, -165, -145, -150, -119, -104, -143, -175, -158, -136, -158, -177, -163])
('ECG', 1746700117932814372, [-148, -155, -145, -121, -111, -109, -102, -119, -163, -204, -211, -199, -187, -167, -160, -165, -65, 92, -87, -683, -1000, -586, -109, -53, -41, 51, 58, 38, 38, 12, 9, 48, 68, 75, 99, 128, 114, 97, 128, 158, 128, 94, 82, 58, 21, -2, -24, -60, -102, -145, -180, -177, -167, -189, -187, -150, -143, -153, -138, -111, -104, -121, -138, -116, -82, -114, -155, -136, -128, -158, -141, -99, -94])
('ECG', 1746700118494472730, [-87, -75, -97, -148, -158, -136, -145, -160, -150, -133, -133, -48, 119, -29, -654, -1063, -664, -55, 48, -14, 75, 111, 77, 80, 92, 90, 104, 124, 124, 119, 138, 160, 153, 155, 184, 199, 180, 133, 94, 72, 48, 19, -21, -77, -119, -131, -150, -175, -172, -155, -145, -138, -126, -126, -124, -114, -119, -128, -121, -116, -124, -136, -153, -143, -131, -136, -121, -94, -97, -107, -109, -131, -155])
('ECG', 1746700119056161606, [-155, -160, -163, -163, -172, -170, -99, 85, 102, -408, -1024, -888, -211, 58, -17, 38, 94, 63, 55, 68, 77, 107, 138, 153, 155, 143, 131, 158, 187, 165, 170, 182, 136, 104, 107, 75, 34, 4, -38, -85, -136, -172, -163, -158, -172, -155, -121, -119, -128, -121, -111, -119, -104, -68, -102, -170, -160, -124, -124, -131, -121, -114, -104, -80, -80, -94, -92, -121, -155, -136, -128, -150, -148])
('ECG', 1746700119617819966, [-148, -158, -24, 170, -24, -710, -1124, -664, -48, 38, 9, 107, 119, 87, 99, 114, 109, 114, 138, 145, 145, 163, 170, 182, 233, 228, 165, 155, 150, 99, 70, 70, 29, -41, -82, -92, -114, -148, -141, -111, -121, -128, -107, -87, -87, -104, -124, -114, -99, -126, -141, -111, -97, -114, -131, -136, -119, -92, -97, -107, -80, -55, -97, -158, -153, -128, -155, -155, -131, -138, -145, -31, 141])
('ECG', 1746700120179508842, [-38, -725, -1172, -712, -65, 14, -21, 104, 121, 65, 92, 128, 116, 104, 119, 138, 153, 153, 155, 177, 184, 182, 177, 150, 109, 70, 48, 41, 7, -46, -90, -126, -145, -153, -165, -177, -163, -133, -133, -141, -121, -121, -153, -158, -145, -148, -150, -150, -170, -184, -165, -143, -153, -163, -141, -111, -111, -145, -170, -170, -182, -194, -175, -170, -189, -194, -126, 43, 41, -469, -1085, -963, -311])
('ECG', 1746700120741187546, [-51, -82, 7, 58, 24, 46, 82, 70, 65, 90, 102, 102, 114, 131, 141, 148, 153, 138, 121, 107, 53, 2, 2, -7, -55, -97, -126, -175, -201, -199, -189, -180, -165, -143, -141, -153, -150, -138, -138, -143, -155, -167, -170, -160, -158, -170, -160, -138, -150, -150, -114, -121, -160, -182, -194, -189, -175, -172, -172, -167, -155, -48, 94, -126, -802, -1141, -625, -99, -77, -36, 85, 68, 43])
('ECG', 1746700121302856076, [72, 68, 58, 80, 82, 92, 121, 141, 158, 155, 138, 145, 148, 121, 80, 41, 19, 7, -17, -68, -124, -158, -158, -160, -194, -204, -165, -133, -128, -133, -138, -138, -128, -114, -121, -143, -153, -143, -148, -150, -138, -133, -145, -133, -109, -126, -141, -141, -165, -175, -163, -170, -177, -165, -155, -92, 63, 7, -510, -1051, -863, -223, -14, -60, 55, 99, 38, 58, 85, 68, 70, 77, 82])
('ECG', 1746700121864544952, [107, 138, 158, 165, 167, 182, 192, 155, 102, 68, 51, 26, -21, -65, -87, -128, -177, -187, -167, -170, -184, -163, -138, -138, -136, -119, -126, -160, -160, -119, -111, -145, -158, -138, -133, -145, -136, -116, -109, -99, -114, -158, -167, -167, -184, -175, -153, -155, -160, -172, -131, 53, 107, -335, -958, -936, -326, -24, -55, 14, 65, 34, 55, 85, 46, 31, 68, 82, 80, 102, 141, 160, 150])
('ECG', 1746700122426208398, [153, 160, 141, 102, 55, 19, -4, -31, -65, -116, -153, -150, -160, -201, -218, -201, -184, -172, -145, -128, -145, -155, -133, -126, -143, -160, -153, -143, -153, -160, -160, -153, -143, -121, -99, -102, -128, -182, -221, -194, -158, -158, -172, -177, -177, -114, 58, 77, -374, -968, -912, -289, -12, -75, 0, 65, 36, 60, 85, 51, 43, 68, 82, 104, 107, 104, 138, 165, 160, 158, 150, 107, 60])
('ECG', 1746700122987892186, [46, 29, -14, -55, -94, -153, -189, -199, -216, -206, -175, -163, -170, -160, -131, -131, -143, -145, -153, -153, -143, -143, -148, -148, -138, -141, -148, -128, -111, -99, -107, -145, -175, -189, -189, -172, -172, -177, -172, -175, -150, -19, 107, -128, -756, -1087, -632, -72, -12, -38, 65, 85, 48, 58, 75, 80, 87, 82, 90, 116, 128, 136, 160, 165, 163, 182, 167, 121, 90, 48, -7, -43, -80])
('ECG', 1746700123549575978, [-121, -145, -167, -194, -192, -163, -150, -153, -143, -128, -126, -121, -126, -153, -150, -111, -116, -145, -133, -121, -128, -131, -133, -131, -104, -85, -97, -124, -136, -145, -158, -143, -138, -160, -155, -119, -124, -111, 46, 109, -316, -968, -992, -330, 31, -38, 19, 116, 87, 68, 85, 82, 77, 102, 128, 141, 148, 155, 172, 209, 223, 199, 180, 165, 136, 99, 60, 14, -36, -60, -80, -131, -165])
('ECG', 1746700124111239422, [-155, -153, -158, -148, -131, -114, -107, -109, -119, -107, -94, -111, -119, -94, -87, -114, -131, -111, -109, -121, -114, -94, -90, -92, -80, -70, -114, -167, -150, -128, -138, -133, -128, -153, -107, 87, 138, -345, -1029, -985, -284, 34, -29, 51, 114, 68, 82, 116, 99, 97, 126, 141, 143, 153, 170, 177, 192, 209, 201, 172, 155, 141, 94, 58, 36, -26, -109, -143, -153, -180, -194, -189, -180])
('ECG', 1746700124672928298, [-155, -131, -131, -141, -133, -111, -121, -160, -172, -148, -128, -148, -167, -141, -119, -141, -153, -136, -128, -121, -119, -138, -155, -145, -141, -158, -158, -150, -163, -170, -165, -165, -126, 2, 77, -245, -893, -1102, -537, -68, -68, -26, 72, 55, 51, 80, 60, 41, 72, 97, 104, 114, 119, 136, 163, 172, 170, 148, 92, 48, 41, 36, -4, -60, -87, -102, -167, -236, -236, -211, -199, -175, -158])
('ECG', 1746700125234596830, [-155, -145, -136, -136, -133, -141, -160, -182, -187, -160, -145, -187, -180, -126, -133, -158, -126, -111, -138, -136, -133, -170, -194, -187, -182, -175, -167, -163, -158, -109, 34, 63, -360, -992, -1007, -377, -36, -48, 24, 65, 29, 38, 75, 77, 72, 90, 99, 99, 111, 133, 153, 170, 184, 165, 119, 80, 55, 41, 19, -31, -80, -102, -124, -180, -221, -194, -182, -206, -197, -160, -153, -155, -133])
('ECG', 1746700125796275532, [-111, -126, -158, -155, -128, -136, -163, -155, -143, -150, -160, -150, -136, -148, -153, -124, -107, -126, -141, -155, -180, -180, -150, -150, -170, -165, -138, -63, 82, 12, -525, -1063, -856, -233, -26, -51, 48, 68, 29, 82, 107, 60, 58, 94, 109, 116, 119, 133, 160, 175, 180, 189, 160, 99, 72, 58, 14, -43, -99, -128, -136, -148, -177, -201, -201, -180, -163, -165, -160, -158, -153, -128, -119])
('ECG', 1746700126357964408, [-131, -114, -99, -136, -177, -155, -126, -148, -170, -150, -141, -138, -104, -90, -124, -126, -116, -153, -187, -172, -150, -163, -192, -167, -90, 38, 87, -274, -934, -1041, -399, 21, -19, 14, 102, 77, 58, 70, 68, 87, 124, 121, 111, 136, 165, 175, 192, 204, 192, 170, 141, 114, 85, 51, 17, -41, -97, -121, -153, -184, -180, -163, -172, -163, -128, -136, -145, -109, -99, -116, -121, -119, -128])
('ECG', 1746700126919648200, [-133, -119, -102, -119, -133, -119, -116, -128, -128, -104, -75, -70, -85, -97, -107, -128, -150, -143, -121, -131, -153, -150, -97, 70, 182, -177, -905, -1099, -442, 58, -4, -4, 121, 121, 80, 92, 109, 121, 124, 126, 153, 182, 184, 192, 211, 211, 199, 192, 180, 143, 92, 75, 55, -9, -63, -102, -160, -192, -180, -184, -194, -170, -148, -138, -121, -133, -150, -128, -109, -121, -143, -141, -138])
('ECG', 1746700127481331990, [-150, -138, -121, -128, -136, -138, -138, -138, -133, -107, -99, -141, -158, -143, -133, -145, -158, -131, -141, -206, -163, 38, 131, -226, -897, -1065, -474, -41, -48, -17, 68, 80, 51, 46, 107, 136, 63, 31, 102, 155, 153, 136, 121, 148, 187, 165, 109, 68, 41, 12, -21, -55, -82, -119, -177, -216, -223, -221, -218, -206, -187, -177, -180, -182, -172, -148, -138, -158, -172, -170, -175, -197, -206])
('ECG', 1746700128043000520, [-189, -199, -233, -201, -155, -177, -187, -141, -97, -114, -184, -240, -240, -211, -187, -192, -206, -167, -48, 63, -82, -639, -1065, -712, -148, -72, -85, 38, 43, 12, 46, 55, 38, 51, 63, 70, 99, 150, 160, 97, 85, 141, 121, 60, 36, 36, 46, 19, -60, -143, -182, -172, -158, -184, -218, -209, -189, -236, -304, -245, -94, -53, -121, -141, -109, -116, -153, -172, -197, -184, -138, -153, -170])
('ECG', 1746700128604669052, [-126, -124, -143, -102, -99, -184, -228, -201, -177, -172, -170, -175, -180, -163, -102, 51, 90, -316, -893, -936, -423, -92, -63, -2, 41, 55, 85, 65, 43, 38, 19, 38, 70, 80, 119, 148, 148, 165, 167, 111, 60, 41, 7, -38, -63, -99, -133, -143, -180, -226, -216, -172, -177, -216, -226, -204, -194, -197, -160, -109, -107, -136, -153, -165, -194, -192, -175, -194, -150, -97, -160, -187, -102])
('ECG', 1746700129166347754, [-87, -170, -218, -223, -211, -192, -172, -170, -177, -165, -97, 43, -9, -486, -927, -734, -204, -4, -82, -85, -31, -34, 7, 114, 114, 60, 72, 90, 80, 102, 177, 197, 104, 70, 109, 82, 36, 55, 72, 19, -58, -124, -165, -167, -180, -243, -270, -209, -160, -138, -124, -121, -126, -153, -189, -187, -177, -170, -167, -145, -92, -104, -175, -165, -107, -124, -160, -126, -114, -180, -201, -170, -184])
('ECG', 1746700129728006112, [-201, -177, -177, -187, -175, -124, 2, -17, -418, -893, -822, -287, -34, -77, -4, 58, 14, -9, -19, -12, 34, 65, 75, 85, 94, 119, 150, 143, 94, 90, 107, 65, 4, -24, -48, -77, -51, -12, 0, 0, -80, -221, -401, -437, -206, -80, -143, -121, -55, -55, -65, -90, -65, -14, -87, -145, -68, -43, -97, -70, 9, -2, -94, -75, -9, -104, -216, -163, -109, -143, -141, -109, -126])
('ECG', 1746700130289689904, [-92, 55, 12, -418, -858, -756, -248, -24, -77, -26, 31, 19, 29, 34, 12, 29, 53, 26, -4, 26, 85, 99, 94, 102, 97, 65, 9, -24, -55, -145, -197, -180, -182, -194, -206, -245, -270, -253, -248, -233, -209, -211, -211, -214, -194, -138, -153, -214, -197, -172, -189, -197, -201, -199, -158, -141, -167, -167, -177, -223, -233, -223, -231, -228, -197, -148, -170, -233, -111, -7, -338, -861, -875])
('ECG', 1746700130851353348, [-345, -51, -72, -12, 19, -21, -4, 14, 17, 65, 87, 41, 38, 92, 136, 150, 133, 104, 92, 65, 26, 21, 24, -7, -46, -82, -111, -104, -153, -260, -270, -214, -211, -194, -136, -131, -150, -138, -124, -136, -143, -126, -145, -160, -116, -126, -201, -209, -153, -133, -131, -119, -114, -124, -160, -199, -204, -209, -197, -172, -214, -216, -51, 77, -158, -695, -910, -491, -82, -38, -53, -7, 48])
('ECG', 1746700131413026966, [51, -2, 12, 82, 72, 14, 43, 114, 114, 99, 114, 133, 141, 131, 119, 87, 4, -65, -60, -63, -145, -197, -167, -167, -189, -180, -167, -141, -133, -194, -216, -155, -109, -107, -104, -111, -136, -136, -109, -138, -197, -189, -141, -128, -124, -97, -99, -136, -141, -136, -163, -206, -216, -194, -187, -187, -128, 9, 34, -357, -885, -807, -238, -12, -75, -14, 29, 9, 53, 75, 31, 36, 65])
