('ECG', 1756478873771771000, [6109, 6837, 6955, 7657, 7887, 7793, 7973, 8062, 7942, 7918, 7911, 7803, 7700, 7654, 7604, 7501, 7376, 7340, 7314, 7158, 7038, 7005, 6878, 6734, 6660, 6590, 6516, 6420, 6300, 6214, 6164, 6125, 6063, 5943, 5833, 5754, 5675, 5603, 5524, 5416, 5315, 5260, 5193, 5088, 4997, 4898, 4884, 5164, 5610, 5744, 5066, 4088, 4033, 4452, 4328, 4115, 4179, 4155, 4014, 3964, 3935, 3863, 3801, 3745, 3686, 3638, 3575, 3501, 3446, 3393, 3304, 3223, 3165])
('ECG', 1756478874333551430, [3089, 3002, 2931, 2856, 2787, 2717, 2641, 2569, 2511, 2442, 2360, 2310, 2255, 2168, 2104, 2056, 1991, 1929, 1878, 1819, 1749, 1692, 1644, 1584, 1526, 1481, 1414, 1344, 1286, 1227, 1174, 1131, 1071, 1004, 949, 903, 857, 802, 752, 704, 654, 613, 570, 517, 469, 431, 395, 354, 316, 273, 232, 196, 158, 119, 86, 47, 2, -35, -55, -74, -105, -134, -162, -215, -273, -299, -323, -359, -378, -409, -491, -560, -448])
('ECG', 1756478874895362378, [-43, 414, 424, -361, -1136, -932, -560, -726, -810, -690, -721, -793, -742, -714, -759, -771, -764, -798, -817, -805, -798, -795, -810, -841, -862, -877, -905, -939, -958, -973, -994, -1016, -1028, -1032, -1040, -1066, -1092, -1114, -1143, -1155, -1145, -1112, -1090, -1138, -1155, -1121, -1136, -1171, -1167, -1164, -1179, -1181, -1179, -1188, -1200, -1203, -1203, -1212, -1222, -1231, -1231, -1210, -1195, -1212, -1224, -1210, -1203, -1205, -1191, -1186, -1198, -1188, -1176])
('ECG', 1756478875457142808, [-1179, -1179, -1179, -1179, -1169, -1179, -1191, -1167, -1155, -1181, -1181, -1143, -1114, -1124, -1124, -1100, -1109, -1152, -1162, -1138, -1133, -1136, -1145, -1195, -1234, -1068, -630, -182, -191, -961, -1646, -1373, -1023, -1169, -1198, -1088, -1112, -1131, -1080, -1064, -1064, -1049, -1044, -1032, -1018, -1011, -1008, -1008, -1004, -992, -989, -1006, -1020, -1028, -1042, -1052, -1042, -1040, -1056, -1073, -1078, -1066, -1059, -1064, -1068, -1066, -1064, -1061, -1049, -1037, -1040, -1037, -1020])
('ECG', 1756478876018923238, [-1018, -1030, -1032, -1025, -1020, -1028, -1032, -1008, -985, -987, -989, -975, -970, -992, -1008, -982, -953, -956, -958, -939, -925, -925, -925, -922, -917, -908, -901, -901, -903, -903, -901, -898, -893, -893, -891, -874, -855, -855, -857, -848, -857, -881, -886, -874, -869, -886, -896, -903, -965, -932, -565, -11, 261, -275, -1265, -1409, -901, -850, -973, -853, -802, -862, -843, -795, -802, -805, -774, -766, -778, -757, -730, -726, -726])
('ECG', 1756478876580703668, [-721, -728, -742, -757, -771, -786, -783, -781, -798, -807, -800, -805, -814, -805, -802, -824, -829, -805, -793, -795, -795, -795, -786, -781, -786, -776, -762, -766, -766, -757, -752, -757, -762, -762, -757, -752, -759, -769, -764, -752, -742, -740, -750, -742, -726, -730, -742, -733, -721, -726, -740, -752, -726, -675, -687, -707, -661, -654, -711, -730, -723, -733, -730, -726, -781, -805, -548, -14, 445, 258, -762, -1382, -932])
('ECG', 1756478877142514618, [-635, -805, -752, -632, -685, -707, -649, -635, -647, -620, -594, -596, -587, -563, -556, -553, -556, -568, -575, -575, -591, -603, -599, -611, -637, -647, -651, -671, -678, -673, -673, -675, -683, -690, -673, -659, -663, -661, -635, -623, -630, -639, -647, -651, -647, -627, -620, -630, -630, -620, -632, -656, -654, -637, -637, -644, -637, -632, -639, -647, -637, -618, -615, -635, -647, -623, -596, -615, -639, -613, -568, -560, -563])
('ECG', 1756478877704295048, [-553, -577, -599, -575, -570, -591, -579, -572, -589, -611, -697, -685, -278, 340, 707, 270, -817, -1140, -613, -536, -742, -639, -553, -606, -596, -558, -556, -546, -534, -534, -524, -503, -498, -505, -496, -484, -488, -500, -512, -522, -534, -544, -544, -553, -572, -589, -601, -601, -599, -608, -613, -613, -608, -603, -599, -596, -601, -596, -582, -579, -584, -577, -570, -572, -570, -568, -572, -577, -577, -582, -579, -579, -587])
('ECG', 1756478878266075478, [-584, -572, -575, -582, -575, -563, -572, -589, -577, -558, -560, -565, -551, -546, -558, -563, -546, -527, -517, -515, -508, -498, -510, -534, -541, -536, -534, -532, -524, -560, -642, -551, -79, 539, 776, 64, -1011, -1016, -469, -536, -683, -541, -522, -577, -522, -488, -510, -498, -467, -457, -455, -440, -426, -417, -414, -417, -417, -417, -421, -440, -462, -462, -464, -486, -510, -512, -517, -529, -546, -558, -560, -556, -548])
('ECG', 1756478878827855908, [-551, -563, -556, -534, -532, -544, -539, -527, -529, -529, -512, -512, -529, -520, -517, -532, -517, -508, -532, -539, -527, -529, -536, -529, -529, -536, -532, -527, -524, -527, -532, -532, -539, -546, -529, -512, -500, -488, -503, -524, -505, -488, -520, -544, -520, -493, -500, -551, -587, -577, -484, -107, 486, 742, 14, -1100, -1112, -524, -529, -659, -529, -512, -589, -556, -510, -524, -503, -448, -445, -464, -452, -428, -407])
('ECG', 1756478879389636338, [-409, -424, -428, -424, -431, -443, -455, -464, -464, -479, -508, -515, -517, -532, -532, -534, -534, -512, -517, -546, -544, -539, -541, -529, -524, -522, -524, -539, -553, -529, -491, -508, -536, -508, -505, -565, -570, -517, -522, -548, -532, -517, -536, -548, -534, -524, -532, -546, -546, -527, -522, -534, -546, -544, -532, -539, -541, -534, -517, -484, -476, -510, -508, -462, -484, -553, -558, -522, -503, -491, -515, -587, -565])
('ECG', 1756478879951416768, [-254, 292, 675, 318, -697, -1090, -618, -433, -582, -539, -481, -517, -510, -481, -476, -452, -428, -445, -448, -400, -376, -385, -369, -359, -388, -407, -402, -400, -419, -426, -412, -428, -467, -479, -484, -508, -505, -488, -522, -544, -510, -496, -510, -496, -496, -517, -505, -479, -493, -503, -481, -496, -505, -457, -457, -508, -500, -476, -486, -491, -493, -512, -522, -496, -472, -484, -498, -498, -496, -488, -496, -515, -510])
('ECG', 1756478880513197200, [-484, -491, -510, -486, -474, -505, -510, -496, -491, -476, -460, -445, -452, -479, -476, -460, -462, -464, -462, -467, -486, -481, -476, -529, -481, -141, 328, 570, 141, -750, -958, -515, -440, -596, -515, -443, -488, -484, -440, -436, -443, -433, -414, -405, -397, -378, -369, -361, -347, -357, -388, -383, -376, -412, -424, -397, -412, -452, -450, -457, -500, -493, -469, -488, -510, -510, -503, -496, -488, -503, -500, -467, -467])
('ECG', 1756478881074977630, [-484, -484, -481, -486, -484, -481, -481, -469, -455, -479, -496, -486, -491, -500, -488, -481, -484, -488, -498, -503, -496, -493, -493, -481, -476, -484, -484, -493, -496, -476, -472, -472, -472, -467, -450, -457, -455, -417, -440, -498, -486, -457, -474, -469, -450, -500, -565, -455, -71, 433, 642, 16, -937, -937, -443, -488, -591, -452, -443, -491, -455, -445, -460, -426, -400, -412, -402, -376, -378, -366, -340, -359, -381])
('ECG', 1756478881636758060, [-364, -366, -405, -419, -395, -390, -433, -464, -476, -476, -476, -486, -498, -498, -496, -498, -496, -496, -508, -481, -452, -479, -491, -457, -457, -479, -462, -452, -448, -445, -479, -491, -448, -436, -464, -474, -476, -484, -488, -488, -467, -457, -479, -469, -452, -476, -479, -450, -462, -472, -448, -467, -493, -460, -450, -462, -443, -448, -460, -426, -426, -464, -436, -402, -438, -474, -474, -455, -443, -462, -493, -512, -448])
('ECG', 1756478882198538490, [-117, 424, 704, 146, -819, -937, -467, -452, -558, -431, -438, -527, -469, -407, -440, -457, -421, -376, -361, -371, -359, -349, -361, -364, -352, -347, -354, -364, -383, -402, -402, -395, -414, -452, -469, -464, -476, -500, -510, -491, -476, -467, -472, -479, -469, -469, -476, -467, -460, -467, -467, -452, -452, -460, -448, -436, -467, -484, -462, -460, -472, -457, -445, -457, -460, -455, -464, -484, -479, -445, -431, -445, -457])
('ECG', 1756478882760318920, [-474, -472, -448, -457, -467, -433, -428, -455, -467, -457, -438, -443, -433, -407, -431, -445, -397, -390, -455, -472, -433, -428, -462, -472, -488, -505, -313, 153, 589, 503, -321, -973, -690, -381, -527, -546, -457, -488, -462, -395, -421, -440, -421, -417, -407, -385, -369, -354, -354, -364, -347, -323, -352, -402, -405, -393, -407, -400, -388, -426, -464, -464, -479, -493, -479, -476, -474, -464, -467, -469, -472, -476, -476])
('ECG', 1756478883322099350, [-469, -443, -440, -460, -452, -452, -460, -448, -426, -421, -443, -450, -445, -462, -474, -464, -452, -431, -428, -452, -450, -428, -440, -474, -474, -443, -436, -448, -450, -440, -426, -428, -436, -436, -433, -431, -440, -455, -455, -443, -407, -393, -412, -414, -407, -419, -436, -443, -443, -433, -424, -452, -500, -476, -239, 198, 584, 440, -419, -980, -623, -361, -536, -520, -407, -436, -457, -443, -440, -419, -390, -383, -373])
('ECG', 1756478883883879782, [-366, -366, -361, -347, -345, -354, -357, -349, -354, -376, -395, -400, -397, -405, -431, -452, -457, -464, -464, -448, -455, -479, -476, -462, -467, -474, -469, -448, -417, -414, -438, -450, -448, -436, -440, -460, -443, -417, -421, -438, -445, -452, -431, -414, -440, -462, -455, -450, -460, -450, -433, -436, -431, -426, -436, -438, -450, -460, -433, -414, -426, -438, -443, -431, -428, -448, -431, -385, -393, -409, -390, -395, -431])
('ECG', 1756478884445660212, [-455, -452, -448, -452, -445, -450, -491, -354, 86, 522, 498, -227, -951, -764, -364, -452, -527, -421, -426, -467, -440, -414, -397, -393, -402, -393, -378, -378, -354, -323, -313, -328, -337, -337, -354, -381, -378, -364, -373, -400, -421, -436, -428, -421, -440, -455, -467, -474, -460, -462, -472, -438, -417, -438, -452, -436, -419, -421, -433, -443, -433, -431, -450, -445, -414, -428, -462, -440, -414, -428, -455, -467, -452])
('ECG', 1756478885007440642, [-438, -452, -460, -424, -421, -455, -450, -436, -452, -450, -431, -438, -455, -462, -448, -433, -436, -433, -419, -405, -393, -407, -436, -455, -452, -443, -460, -457, -438, -498, -481, -148, 357, 632, 186, -769, -994, -488, -390, -548, -462, -414, -486, -474, -414, -407, -414, -400, -388, -390, -385, -369, -354, -342, -333, -340, -357, -371, -400, -424, -426, -414, -405, -421, -445, -455, -481, -493, -460, -464, -496, -479, -469])
('ECG', 1756478885569221072, [-491, -488, -460, -448, -457, -464, -450, -440, -467, -498, -474, -433, -448, -472, -445, -438, -476, -488, -476, -457, -445, -464, -467, -448, -462, -474, -457, -460, -452, -436, -443, -445, -455, -464, -467, -469, -448, -421, -409, -402, -409, -424, -436, -443, -440, -448, -469, -457, -440, -493, -508, -244, 273, 661, 383, -551, -1008, -603, -400, -541, -476, -407, -479, -481, -426, -424, -440, -428, -393, -366, -381, -397, -371])
('ECG', 1756478886131001502, [-335, -340, -371, -376, -373, -378, -390, -402, -409, -417, -433, -460, -481, -469, -452, -479, -496, -484, -472, -481, -481, -462, -476, -484, -452, -433, -448, -445, -436, -448, -474, -484, -452, -405, -409, -452, -455, -433, -455, -484, -460, -428, -431, -455, -467, -450, -450, -464, -455, -438, -443, -455, -448, -445, -455, -436, -400, -409, -428, -409, -414, -440, -443, -440, -436, -431, -438, -467, -517, -448, -112, 325, 508])
('ECG', 1756478886692751414, [47, -762, -889, -464, -409, -527, -440, -400, -448, -421, -378, -381, -381, -371, -376, -378, -357, -333, -306, -289, -301, -316, -311, -325, -361, -349, -333, -371, -385, -376, -414, -462, -455, -452, -472, -474, -472, -462, -443, -443, -450, -445, -445, -440, -426, -428, -436, -424, -419, -433, -438, -440, -438, -426, -438, -455, -431, -414, -438, -452, -445, -438, -428, -426, -438, -445, -448, -440, -428, -436, -443, -426, -405])
('ECG', 1756478887254531846, [-395, -383, -376, -393, -440, -460, -424, -397, -424, -438, -421, -443, -460, -304, 86, 484, 421, -330, -975, -730, -369, -452, -476, -378, -388, -419, -388, -373, -381, -373, -364, -347, -318, -309, -299, -285, -285, -294, -306, -316, -330, -345, -357, -361, -347, -357, -397, -419, -433, -452, -448, -440, -452, -450, -443, -457, -457, -428, -426, -452, -433, -395, -419, -457, -426, -385, -412, -450, -445, -428, -438, -450, -445])
('ECG', 1756478887816312276, [-431, -424, -436, -448, -443, -443, -448, -433, -433, -462, -462, -426, -428, -448, -431, -409, -421, -417, -378, -390, -436, -440, -414, -414, -438, -433, -431, -469, -417, -98, 359, 558, 69, -774, -884, -424, -373, -515, -433, -381, -421, -397, -361, -378, -361, -325, -330, -340, -321, -311, -311, -309, -301, -275, -268, -311, -335, -318, -333, -373, -376, -388, -417, -412, -409, -433, -440, -440, -457, -452, -419, -414, -443])
('ECG', 1756478888378092706, [-443, -431, -436, -421, -395, -397, -409, -424, -443, -457, -455, -443, -417, -397, -419, -452, -436, -402, -426, -464, -450, -431, -438, -443, -438, -426, -428, -436, -431, -431, -428, -412, -402, -400, -400, -414, -428, -443, -440, -421, -436, -469, -476, -419, -194, 222, 534, 237, -603, -941, -527, -352, -500, -455, -393, -431, -397, -361, -388, -385, -364, -347, -318, -325, -337, -309, -285, -297, -306, -294, -306, -347, -347])
('ECG', 1756478888939873136, [-333, -359, -378, -378, -397, -417, -419, -424, -443, -455, -462, -474, -467, -436, -424, -409, -395, -419, -428, -421, -443, -433, -395, -421, -450, -414, -402, -417, -409, -419, -452, -455, -440, -445, -438, -409, -421, -438, -409, -414, -448, -438, -424, -438, -424, -397, -402, -409, -402, -388, -376, -378, -397, -412, -407, -407, -414, -409, -419, -462, -476, -321, 76, 479, 440, -301, -977, -726, -328, -440, -486, -349, -361])
('ECG', 1756478889501623048, [-421, -388, -345, -359, -373, -349, -321, -304, -294, -299, -304, -287, -273, -294, -306, -299, -325, -352, -333, -325, -364, -393, -390, -393, -405, -431, -448, -431, -419, -433, -424, -405, -421, -428, -407, -402, -385, -369, -412, -443, -409, -395, -421, -407, -376, -412, -448, -419, -400, -424, -448, -443, -440, -440, -424, -414, -414, -407, -419, -438, -438, -436, -424, -385, -376, -390, -385, -407, -438, -426, -414, -426, -433])
('ECG', 1756478890063403478, [-436, -462, -464, -239, 275, 699, 436, -553, -1116, -651, -306, -467, -472, -369, -405, -424, -385, -388, -390, -337, -301, -309, -306, -309, -321, -294, -273, -297, -304, -280, -299, -328, -323, -335, -366, -381, -393, -405, -409, -402, -409, -428, -431, -436, -450, -436, -414, -409, -414, -417, -405, -397, -405, -405, -397, -405, -407, -381, -383, -431, -428, -397, -417, -431, -400, -400, -433, -438, -424, -426, -421, -405, -393])
('ECG', 1756478890625153392, [-397, -419, -414, -390, -397, -407, -414, -443, -433, -388, -393, -419, -414, -424, -467, -467, -258, 213, 671, 508, -469, -1073, -618, -297, -496, -479, -347, -405, -455, -409, -361, -309, -292, -328, -337, -311, -297, -306, -325, -294, -232, -254, -311, -309, -311, -342, -354, -371, -393, -388, -397, -424, -409, -402, -438, -436, -395, -390, -414, -421, -421, -436, -424, -385, -364, -366, -376, -388, -397, -421, -428, -400, -385])
('ECG', 1756478891186933822, [-402, -395, -385, -405, -419, -419, -421, -419, -417, -400, -383, -400, -424, -424, -421, -409, -383, -359, -357, -371, -369, -361, -378, -405, -405, -393, -395, -402, -402, -414, -438, -321, 74, 515, 510, -198, -879, -685, -304, -395, -452, -345, -349, -383, -342, -316, -321, -309, -287, -282, -282, -287, -275, -244, -234, -246, -249, -256, -280, -297, -297, -304, -311, -311, -333, -373, -383, -383, -409, -421, -390, -378, -395])
('ECG', 1756478891748714252, [-395, -376, -373, -381, -383, -378, -371, -364, -369, -381, -364, -347, -371, -388, -376, -378, -385, -393, -407, -402, -385, -390, -397, -378, -369, -393, -407, -395, -393, -395, -373, -359, -366, -364, -371, -407, -421, -390, -369, -378, -397, -424, -484, -412, 11, 618, 843, 95, -994, -985, -407, -414, -517, -385, -364, -402, -361, -347, -366, -349, -333, -335, -301, -258, -266, -278, -275, -275, -287, -306, -330, -333, -337])
('ECG', 1756478892310494682, [-352, -352, -347, -357, -381, -397, -409, -409, -407, -409, -393, -388, -412, -417, -405, -405, -397, -378, -390, -402, -381, -354, -354, -381, -402, -393, -381, -385, -395, -395, -385, -395, -419, -424, -414, -417, -400, -376, -402, -424, -390, -364, -369, -371, -371, -397, -426, -417, -395, -400, -412, -405, -445, -556, -417, 177, 846, 889, -182, -1207, -857, -345, -510, -503, -337, -397, -431, -364, -352, -352, -321, -316, -318])
('ECG', 1756478892872244594, [-297, -278, -275, -282, -268, -263, -282, -297, -311, -340, -366, -361, -337, -345, -376, -390, -395, -405, -412, -417, -424, -433, -443, -440, -393, -359, -381, -400, -390, -395, -395, -381, -383, -390, -395, -397, -390, -388, -397, -402, -397, -393, -393, -405, -412, -414, -424, -409, -390, -405, -414, -388, -366, -371, -378, -388, -405, -417, -417, -407, -393, -393, -426, -520, -498, -57, 661, 1061, 369, -953, -1119, -426, -378])
('ECG', 1756478893434025024, [-553, -409, -361, -426, -390, -352, -364, -354, -330, -325, -316, -294, -289, -292, -282, -275, -294, -321, -333, -337, -354, -369, -364, -366, -378, -383, -395, -417, -412, -385, -388, -402, -393, -390, -405, -400, -383, -378, -383, -381, -373, -369, -364, -369, -378, -385, -383, -383, -388, -381, -371, -378, -388, -393, -397, -397, -400, -400, -395, -400, -402, -397, -402, -405, -393, -376, -369, -371, -361, -364, -390, -409, -402])
('ECG', 1756478893995780024, [-390, -390, -397, -426, -496, -512, -208, 450, 1035, 783, -496, -1207, -613, -297, -556, -484, -340, -426, -438, -359, -352, -371, -359, -342, -335, -323, -311, -301, -301, -299, -299, -316, -335, -345, -359, -366, -357, -354, -371, -381, -383, -390, -402, -407, -409, -417, -412, -397, -395, -397, -385, -371, -376, -383, -373, -369, -376, -376, -366, -373, -388, -381, -361, -373, -385, -383, -381, -383, -393, -395, -388, -390, -397])
('ECG', 1756478894557555368, [-390, -385, -393, -393, -390, -383, -381, -385, -385, -373, -373, -383, -381, -381, -390, -381, -352, -347, -357, -337, -328, -359, -383, -388, -385, -378, -381, -412, -481, -462, -110, 534, 1040, 671, -568, -1071, -476, -297, -546, -450, -342, -436, -433, -361, -359, -361, -337, -323, -316, -306, -297, -287, -287, -287, -287, -289, -301, -316, -333, -340, -345, -347, -352, -357, -371, -381, -385, -393, -400, -395, -393, -383, -369])
('ECG', 1756478895119335798, [-373, -378, -369, -369, -373, -369, -359, -352, -349, -349, -349, -357, -371, -369, -352, -361, -376, -371, -369, -376, -371, -366, -376, -383, -373, -369, -369, -371, -373, -371, -373, -376, -371, -366, -366, -371, -369, -359, -357, -366, -366, -361, -366, -366, -352, -345, -354, -361, -359, -357, -357, -359, -357, -354, -359, -359, -357, -352, -347, -354, -361, -349, -340, -345, -335, -323, -323, -328, -337, -354, -366, -366, -359])
('ECG', 1756478895681116228, [-354, -366, -407, -467, -371, 69, 692, 1008, 366, -788, -905, -335, -366, -544, -400, -359, -428, -400, -369, -373, -354, -337, -333, -318, -301, -287, -280, -282, -285, -287, -301, -323, -335, -337, -340, -347, -347, -345, -352, -366, -373, -373, -373, -376, -385, -390, -383, -371, -364, -359, -364, -371, -364, -357, -364, -373, -366, -349, -352, -366, -369, -364, -366, -373, -376, -383, -390, -385, -385, -390, -388, -383, -388])
('ECG', 1756478896242896658, [-388, -381, -388, -388, -378, -383, -390, -383, -371, -373, -388, -385, -366, -359, -366, -371, -361, -357, -354, -359, -361, -354, -347, -349, -352, -342, -328, -330, -354, -371, -373, -369, -371, -371, -376, -426, -476, -287, 249, 814, 824, -119, -1004, -699, -266, -460, -508, -354, -388, -428, -376, -369, -381, -347, -323, -323, -311, -299, -301, -294, -287, -292, -297, -299, -316, -345, -359, -369, -378, -371, -369, -385, -395])
('ECG', 1756478896804646570, [-395, -400, -405, -409, -407, -402, -405, -407, -397, -393, -395, -395, -388, -373, -371, -376, -369, -369, -385, -381, -371, -373, -381, -385, -385, -378, -378, -390, -390, -381, -381, -390, -395, -390, -383, -381, -390, -390, -376, -371, -383, -388, -385, -383, -373, -369, -378, -383, -376, -376, -378, -376, -371, -366, -373, -371, -354, -352, -373, -373, -342, -342, -371, -381, -383, -397, -393, -383, -400, -450, -484, -273, 278])
('ECG', 1756478897366427002, [836, 795, -222, -1088, -716, -287, -476, -491, -347, -397, -428, -364, -357, -378, -354, -328, -323, -309, -287, -280, -282, -280, -280, -289, -306, -316, -330, -352, -352, -345, -357, -371, -376, -381, -393, -397, -388, -385, -395, -400, -397, -390, -388, -388, -385, -378, -373, -371, -373, -369, -369, -373, -376, -373, -378, -388, -385, -376, -378, -390, -393, -385, -393, -397, -388, -388, -395, -395, -395, -388, -385, -395, -395])
('ECG', 1756478897928207432, [-383, -383, -390, -385, -378, -381, -381, -378, -383, -393, -390, -378, -373, -381, -381, -369, -361, -364, -354, -354, -361, -349, -342, -361, -371, -381, -390, -381, -378, -400, -452, -491, -294, 246, 824, 846, -117, -1025, -707, -261, -462, -512, -357, -395, -438, -378, -361, -366, -340, -323, -316, -304, -299, -285, -270, -273, -280, -280, -285, -297, -311, -328, -342, -347, -349, -364, -378, -378, -378, -381, -378, -381, -388])
('ECG', 1756478898489987862, [-388, -385, -388, -388, -378, -378, -393, -376, -352, -354, -364, -361, -366, -364, -359, -366, -369, -361, -366, -376, -369, -369, -376, -373, -378, -388, -383, -376, -371, -373, -383, -385, -378, -381, -383, -371, -371, -388, -383, -364, -364, -369, -366, -366, -371, -369, -369, -366, -366, -371, -366, -357, -359, -359, -347, -342, -352, -349, -328, -333, -359, -366, -366, -371, -369, -371, -395, -448, -445, -150, 431, 901, 627])
('ECG', 1756478899051737774, [-457, -997, -498, -280, -510, -455, -345, -405, -412, -359, -357, -357, -328, -311, -309, -301, -294, -292, -285, -268, -266, -278, -294, -311, -325, -333, -337, -347, -361, -373, -381, -378, -381, -390, -393, -390, -393, -395, -393, -383, -373, -378, -373, -366, -376, -376, -361, -369, -373, -364, -364, -369, -371, -381, -390, -381, -371, -373, -378, -385, -388, -385, -383, -378, -378, -388, -393, -385, -385, -385, -383, -378, -381])
('ECG', 1756478899613518204, [-388, -393, -383, -373, -381, -385, -376, -376, -381, -376, -371, -376, -381, -383, -381, -373, -371, -369, -352, -342, -359, -371, -352, -333, -342, -364, -383, -390, -381, -366, -373, -414, -474, -397, 7, 601, 917, 333, -771, -913, -349, -349, -536, -402, -349, -414, -381, -347, -361, -342, -316, -318, -311, -292, -282, -280, -275, -263, -258, -273, -292, -301, -306, -321, -342, -349, -340, -349, -376, -385, -381, -381, -383])
('ECG', 1756478900175268116, [-383, -393, -397, -388, -381, -388, -388, -371, -364, -364, -359, -361, -359, -354, -359, -369, -366, -361, -366, -371, -371, -371, -373, -371, -373, -376, -373, -373, -383, -385, -378, -376, -381, -376, -369, -376, -381, -369, -366, -376, -378, -369, -364, -366, -371, -369, -366, -366, -369, -376, -371, -359, -359, -357, -342, -330, -340, -359, -349, -323, -335, -366, -369, -366, -371, -361, -359, -393, -460, -436, -79, 541, 944])
('ECG', 1756478900737048548, [464, -699, -1049, -469, -318, -498, -397, -335, -407, -371, -313, -337, -337, -301, -299, -301, -282, -266, -261, -256, -254, -263, -268, -266, -287, -323, -337, -333, -335, -352, -369, -373, -376, -381, -385, -383, -383, -390, -390, -385, -381, -371, -373, -373, -361, -352, -354, -364, -371, -366, -361, -364, -364, -366, -371, -364, -361, -373, -381, -381, -385, -385, -383, -388, -388, -385, -385, -385, -385, -385, -383, -376, -381])
('ECG', 1756478901298798460, [-395, -395, -378, -366, -373, -378, -376, -378, -385, -373, -357, -364, -371, -364, -361, -364, -352, -342, -357, -366, -337, -318, -345, -369, -369, -371, -373, -369, -381, -426, -476, -321, 196, 790, 874, -11, -970, -738, -256, -428, -517, -361, -376, -419, -361, -342, -364, -342, -313, -309, -301, -285, -275, -270, -266, -263, -263, -273, -289, -306, -321, -330, -333, -342, -352, -366, -381, -381, -369, -381, -402, -405, -393])
('ECG', 1756478901860578890, [-388, -388, -381, -369, -376, -381, -371, -361, -361, -364, -361, -354, -364, -376, -364, -357, -366, -369, -361, -359, -364, -371, -373, -371, -378, -378, -369, -369, -376, -373, -371, -373, -373, -373, -376, -373, -371, -369, -371, -371, -369, -366, -366, -364, -366, -361, -354, -364, -366, -349, -352, -361, -359, -347, -337, -340, -349, -342, -323, -333, -357, -357, -359, -369, -366, -366, -397, -450, -364, 57, 651, 920, 256])
('ECG', 1756478902422328802, [-819, -853, -299, -352, -517, -383, -349, -402, -366, -345, -364, -340, -306, -301, -297, -280, -273, -268, -254, -242, -244, -263, -280, -294, -304, -313, -323, -335, -345, -352, -364, -376, -383, -383, -388, -390, -383, -383, -388, -385, -373, -366, -366, -369, -373, -369, -359, -354, -354, -359, -364, -366, -371, -373, -361, -354, -359, -366, -369, -369, -369, -371, -376, -378, -378, -373, -369, -366, -373, -371, -366, -373, -376])
('ECG', 1756478902984109232, [-366, -359, -364, -366, -366, -366, -359, -359, -361, -352, -349, -359, -357, -352, -357, -354, -349, -347, -347, -345, -335, -337, -345, -328, -313, -323, -337, -352, -361, -359, -357, -371, -421, -445, -210, 335, 846, 723, -285, -997, -568, -227, -455, -460, -321, -373, -405, -333, -316, -330, -311, -292, -280, -266, -263, -258, -246, -244, -244, -239, -242, -261, -278, -278, -282, -297, -313, -330, -345, -349, -364, -371, -359])
('ECG', 1756478903545859144, [-354, -366, -369, -369, -378, -361, -340, -347, -357, -345, -337, -335, -335, -340, -340, -335, -337, -335, -330, -333, -342, -349, -349, -347, -354, -354, -349, -352, -359, -357, -347, -340, -354, -366, -359, -354, -357, -364, -364, -347, -333, -335, -347, -354, -345, -335, -335, -340, -342, -337, -335, -340, -342, -335, -325, -318, -318, -323, -313, -304, -318, -335, -342, -352, -345, -337, -357, -402, -443, -297, 201, 793, 903])
('ECG', 1756478904107639576, [21, -994, -812, -289, -400, -481, -337, -333, -378, -333, -304, -316, -301, -282, -282, -275, -256, -254, -246, -232, -237, -244, -242, -249, -278, -299, -304, -313, -323, -333, -357, -364, -345, -345, -361, -371, -381, -383, -373, -366, -369, -364, -345, -337, -349, -345, -325, -330, -345, -337, -330, -342, -342, -333, -342, -347, -342, -345, -347, -345, -354, -361, -361, -361, -361, -352, -347, -359, -361, -349, -347, -359, -361])
('ECG', 1756478904669389488, [-359, -361, -359, -349, -342, -345, -347, -352, -352, -342, -342, -349, -337, -330, -340, -340, -333, -337, -345, -347, -337, -325, -318, -318, -318, -304, -301, -318, -328, -335, -347, -342, -333, -340, -376, -438, -373, 23, 625, 970, 431, -692, -917, -349, -301, -498, -378, -318, -400, -378, -323, -330, -328, -294, -280, -282, -275, -261, -246, -239, -242, -242, -239, -249, -268, -285, -297, -306, -306, -311, -333, -354, -361])
('ECG', 1756478905231169918, [-366, -371, -371, -373, -373, -373, -369, -364, -361, -357, -352, -352, -352, -347, -345, -345, -345, -333, -335, -342, -337, -333, -345, -352, -345, -347, -361, -357, -349, -354, -354, -354, -357, -359, -359, -361, -357, -349, -342, -342, -345, -352, -354, -349, -340, -342, -345, -347, -349, -340, -328, -330, -345, -349, -345, -342, -340, -342, -349, -340, -321, -316, -325, -325, -313, -318, -333, -318, -299, -318, -340, -345, -347])
('ECG', 1756478905792919830, [-347, -337, -340, -376, -440, -330, 127, 723, 961, 246, -831, -824, -280, -357, -500, -357, -337, -395, -352, -323, -325, -301, -289, -289, -275, -261, -254, -249, -237, -222, -222, -237, -251, -254, -256, -275, -292, -299, -311, -318, -337, -361, -359, -359, -369, -361, -359, -361, -352, -349, -349, -342, -342, -342, -335, -335, -337, -335, -333, -335, -335, -333, -333, -328, -325, -335, -342, -335, -340, -349, -357, -354, -342])
('ECG', 1756478906354669742, [-340, -357, -359, -337, -328, -345, -354, -347, -337, -340, -342, -337, -328, -328, -330, -325, -318, -323, -333, -335, -333, -328, -321, -323, -323, -321, -313, -311, -313, -301, -287, -297, -306, -292, -297, -318, -321, -321, -328, -328, -330, -340, -383, -409, -170, 397, 920, 769, -292, -1032, -591, -237, -450, -436, -289, -333, -357, -313, -313, -311, -282, -275, -273, -256, -239, -232, -230, -222, -213, -220, -232, -242, -261])
('ECG', 1756478906916450172, [-278, -285, -294, -311, -323, -328, -345, -361, -357, -354, -366, -364, -352, -359, -364, -354, -347, -342, -340, -340, -340, -333, -330, -335, -328, -323, -328, -337, -340, -335, -337, -342, -335, -337, -349, -352, -347, -347, -352, -352, -347, -340, -337, -349, -354, -345, -337, -347, -347, -340, -340, -340, -335, -337, -347, -342, -333, -325, -330, -342, -335, -328, -335, -333, -323, -321, -328, -333, -323, -316, -309, -294, -299])
('ECG', 1756478907478200086, [-318, -309, -294, -311, -330, -330, -337, -347, -340, -330, -364, -419, -297, 179, 778, 949, 150, -879, -771, -254, -366, -486, -342, -337, -390, -335, -311, -330, -309, -289, -287, -273, -254, -244, -237, -234, -232, -227, -232, -246, -258, -273, -287, -294, -301, -316, -330, -349, -366, -369, -369, -376, -371, -361, -369, -373, -361, -349, -349, -352, -345, -340, -345, -352, -342, -335, -337, -337, -335, -340, -337, -335, -340])
('ECG', 1756478908039949998, [-352, -359, -352, -349, -349, -342, -345, -347, -342, -340, -347, -354, -357, -352, -342, -342, -345, -337, -335, -340, -340, -340, -340, -333, -333, -337, -333, -321, -321, -328, -328, -328, -328, -321, -321, -328, -328, -313, -299, -297, -311, -309, -285, -294, -325, -325, -325, -342, -335, -321, -342, -412, -400, -95, 474, 944, 699, -383, -975, -488, -234, -464, -419, -299, -364, -369, -309, -321, -323, -278, -263, -273, -261])
('ECG', 1756478908601730428, [-244, -237, -232, -222, -218, -215, -230, -242, -242, -256, -280, -287, -292, -304, -313, -321, -340, -357, -366, -369, -352, -345, -359, -364, -354, -347, -342, -337, -340, -337, -328, -330, -337, -337, -328, -330, -342, -349, -340, -330, -333, -342, -342, -337, -335, -342, -347, -352, -357, -349, -335, -335, -349, -352, -349, -345, -342, -342, -342, -347, -342, -330, -330, -335, -337, -335, -333, -333, -337, -330, -321, -321, -313])
('ECG', 1756478909163480340, [-297, -301, -318, -309, -287, -299, -325, -335, -337, -328, -328, -340, -354, -402, -397, -83, 515, 965, 613, -524, -1006, -450, -251, -481, -405, -297, -364, -361, -311, -323, -321, -280, -266, -263, -249, -242, -237, -225, -213, -215, -218, -227, -244, -256, -266, -282, -301, -311, -321, -333, -342, -352, -359, -364, -366, -361, -364, -364, -354, -357, -364, -354, -337, -335, -342, -342, -330, -330, -340, -335, -328, -335, -342])
('ECG', 1756478909725230252, [-342, -342, -340, -342, -352, -354, -345, -340, -349, -354, -347, -345, -349, -352, -337, -340, -354, -352, -342, -342, -342, -337, -340, -340, -335, -335, -335, -325, -323, -337, -342, -325, -313, -318, -325, -325, -318, -306, -299, -309, -323, -304, -278, -292, -318, -330, -337, -330, -321, -333, -369, -426, -354, 64, 668, 958, 347, -740, -862, -309, -309, -484, -361, -318, -378, -347, -318, -333, -313, -282, -278, -273, -256])
('ECG', 1756478910286980164, [-242, -232, -225, -220, -225, -237, -242, -239, -251, -275, -282, -275, -292, -323, -337, -345, -349, -349, -361, -369, -359, -359, -364, -354, -337, -333, -337, -337, -333, -335, -337, -335, -335, -335, -323, -321, -328, -328, -328, -337, -342, -345, -347, -342, -342, -347, -349, -342, -342, -352, -349, -337, -335, -337, -340, -342, -345, -345, -337, -340, -342, -328, -318, -330, -337, -335, -337, -333, -328, -330, -325, -321, -323])
('ECG', 1756478910848730078, [-316, -313, -321, -318, -294, -278, -299, -321, -294, -273, -299, -318, -311, -318, -330, -318, -313, -361, -424, -309, 150, 740, 956, 237, -831, -822, -280, -335, -452, -323, -323, -376, -325, -292, -299, -289, -275, -263, -246, -237, -230, -220, -215, -206, -203, -210, -215, -227, -244, -256, -266, -280, -292, -309, -328, -340, -352, -354, -342, -340, -342, -347, -354, -349, -342, -352, -342, -318, -321, -333, -323, -316, -321])
('ECG', 1756478911410479990, [-335, -337, -321, -321, -337, -333, -330, -342, -340, -325, -335, -345, -330, -328, -345, -349, -342, -337, -335, -335, -340, -337, -340, -340, -333, -335, -340, -325, -311, -323, -330, -325, -328, -328, -325, -328, -325, -318, -318, -313, -299, -292, -306, -301, -282, -292, -313, -321, -330, -337, -330, -323, -352, -419, -388, -31, 577, 977, 522, -615, -970, -397, -266, -484, -393, -297, -357, -359, -311, -299, -299, -282, -268])
('ECG', 1756478911972245162, [-263, -254, -234, -225, -222, -222, -215, -208, -220, -242, -246, -258, -285, -294, -294, -311, -328, -333, -342, -359, -364, -354, -352, -364, -364, -349, -345, -347, -337, -328, -330, -328, -333, -342, -330, -318, -333, -340, -323, -321, -325, -325, -333, -335, -337, -345, -349, -345, -345, -342, -333, -333, -340, -335, -340, -349, -340, -330, -335, -340, -335, -323, -323, -333, -330, -321, -316, -318, -318, -321, -321, -318, -323])
('ECG', 1756478912534010332, [-328, -323, -316, -309, -313, -333, -328, -299, -289, -294, -299, -299, -275, -268, -292, -311, -321, -330, -328, -318, -318, -352, -409, -333, 74, 663, 975, 397, -702, -865, -313, -299, -476, -357, -306, -369, -342, -306, -316, -304, -282, -278, -263, -249, -242, -234, -218, -206, -208, -213, -218, -232, -251, -258, -266, -282, -299, -309, -316, -330, -340, -340, -345, -352, -354, -349, -345, -349, -352, -340, -330, -328, -330])
('ECG', 1756478913095760244, [-328, -325, -323, -321, -318, -321, -330, -337, -325, -309, -318, -333, -330, -328, -333, -335, -337, -337, -335, -337, -337, -330, -333, -333, -321, -316, -323, -325, -333, -342, -335, -321, -316, -328, -335, -330, -316, -304, -309, -318, -323, -318, -325, -330, -316, -301, -313, -318, -304, -297, -297, -285, -280, -297, -304, -275, -268, -297, -316, -318, -323, -318, -306, -323, -381, -412, -198, 330, 867, 865, -79, -953, -637])
('ECG', 1756478913657479640, [-206, -402, -450, -299, -335, -376, -311, -299, -318, -285, -254, -256, -249, -232, -230, -222, -210, -206, -203, -208, -220, -234, -244, -254, -266, -275, -287, -311, -328, -323, -333, -354, -357, -345, -352, -352, -345, -347, -345, -330, -330, -330, -318, -313, -321, -321, -313, -318, -321, -316, -325, -333, -323, -316, -325, -330, -328, -330, -335, -340, -335, -325, -323, -333, -335, -333, -337, -330, -330, -337, -335, -325, -328])
('ECG', 1756478914219254984, [-325, -321, -328, -325, -321, -328, -321, -311, -318, -318, -316, -321, -313, -299, -297, -287, -273, -285, -301, -280, -273, -297, -301, -304, -328, -328, -306, -311, -364, -433, -321, 158, 774, 1004, 270, -829, -831, -268, -330, -481, -328, -301, -369, -330, -299, -306, -287, -270, -268, -251, -232, -227, -222, -210, -203, -203, -208, -220, -232, -242, -256, -268, -273, -292, -318, -330, -333, -342, -354, -352, -345, -342, -345])
('ECG', 1756478914781009982, [-354, -357, -347, -340, -342, -337, -328, -323, -321, -316, -311, -316, -318, -328, -335, -325, -318, -321, -318, -323, -333, -333, -330, -330, -335, -340, -340, -328, -318, -325, -335, -333, -328, -328, -328, -321, -309, -309, -325, -328, -316, -313, -318, -318, -313, -306, -304, -313, -313, -306, -309, -304, -292, -297, -301, -282, -275, -297, -297, -268, -266, -289, -299, -306, -323, -321, -304, -316, -359, -397, -263, 201, 776])
('ECG', 1756478915342729376, [937, 172, -819, -738, -242, -337, -457, -335, -323, -369, -330, -306, -304, -282, -280, -278, -246, -230, -242, -237, -208, -198, -208, -215, -234, -251, -237, -239, -270, -285, -292, -309, -323, -335, -345, -340, -342, -349, -345, -335, -323, -321, -328, -340, -342, -330, -318, -313, -311, -313, -318, -325, -328, -321, -321, -337, -342, -328, -321, -323, -321, -328, -340, -335, -328, -337, -345, -340, -335, -340, -340, -342, -345])
('ECG', 1756478915904479288, [-335, -330, -333, -335, -330, -330, -340, -347, -340, -333, -330, -323, -323, -318, -309, -306, -306, -294, -294, -309, -292, -270, -292, -330, -330, -311, -301, -301, -316, -359, -421, -359, 33, 620, 944, 393, -716, -922, -359, -301, -472, -354, -297, -359, -333, -289, -299, -294, -258, -239, -246, -251, -237, -218, -208, -208, -206, -206, -218, -237, -261, -278, -270, -270, -301, -318, -323, -337, -342, -347, -359, -361, -361])
('ECG', 1756478916466229200, [-366, -357, -347, -340, -333, -330, -330, -330, -325, -321, -318, -311, -311, -306, -301, -309, -316, -316, -323, -328, -325, -333, -342, -335, -325, -330, -333, -323, -328, -342, -340, -333, -335, -335, -328, -330, -330, -328, -328, -321, -309, -311, -323, -323, -318, -318, -318, -306, -297, -304, -311, -287, -268, -285, -301, -311, -330, -328, -304, -313, -357, -419, -361, 45, 663, 1018, 505, -623, -898, -342, -270, -467, -366])
('ECG', 1756478917027979112, [-301, -364, -342, -297, -301, -292, -275, -275, -251, -225, -237, -239, -215, -206, -208, -203, -206, -222, -246, -258, -263, -275, -292, -311, -325, -330, -337, -349, -352, -354, -361, -354, -349, -357, -357, -340, -330, -335, -333, -328, -333, -333, -325, -325, -325, -328, -333, -335, -330, -330, -333, -333, -330, -335, -349, -347, -335, -345, -354, -345, -345, -352, -340, -337, -352, -337, -318, -330, -345, -337, -328, -333, -335])
('ECG', 1756478917589729026, [-335, -328, -321, -321, -318, -311, -313, -323, -318, -311, -299, -292, -309, -321, -292, -278, -304, -313, -309, -316, -321, -318, -318, -357, -417, -311, 139, 740, 985, 301, -766, -800, -266, -325, -484, -333, -289, -364, -337, -301, -304, -285, -273, -275, -254, -227, -227, -225, -220, -208, -191, -189, -213, -222, -222, -234, -251, -266, -278, -287, -304, -325, -335, -330, -335, -347, -347, -337, -335, -335, -330, -330, -330])
('ECG', 1756478918151478938, [-333, -333, -311, -292, -313, -330, -316, -313, -323, -316, -313, -321, -325, -330, -333, -321, -316, -325, -330, -330, -323, -323, -328, -330, -333, -330, -330, -328, -321, -321, -328, -330, -325, -323, -318, -316, -318, -323, -323, -311, -299, -294, -301, -301, -280, -278, -306, -325, -325, -325, -328, -328, -342, -397, -421, -165, 421, 951, 766, -330, -1047, -589, -246, -438, -409, -289, -340, -354, -301, -304, -309, -278, -263])
('ECG', 1756478918713228850, [-261, -254, -237, -215, -208, -213, -210, -208, -213, -230, -249, -258, -261, -275, -292, -301, -316, -330, -333, -337, -349, -354, -349, -342, -342, -340, -335, -335, -330, -321, -325, -325, -309, -309, -323, -318, -313, -318, -309, -301, -306, -316, -321, -316, -318, -328, -330, -321, -321, -333, -330, -325, -328, -328, -328, -337, -330, -313, -313, -321, -325, -328, -323, -321, -321, -316, -323, -328, -316, -313, -306, -287, -289])
('ECG', 1756478919274978762, [-292, -280, -297, -323, -330, -318, -311, -318, -335, -376, -421, -230, 311, 874, 877, -45, -915, -639, -225, -402, -448, -306, -340, -371, -309, -301, -316, -289, -275, -268, -244, -230, -222, -208, -201, -198, -194, -201, -213, -220, -234, -249, -254, -263, -280, -297, -318, -333, -325, -323, -340, -345, -333, -333, -337, -328, -323, -328, -325, -313, -311, -316, -311, -299, -297, -304, -299, -297, -306, -309, -306, -316, -316])
('ECG', 1756478919836728674, [-311, -316, -318, -313, -321, -328, -321, -318, -318, -318, -318, -313, -311, -318, -318, -318, -323, -311, -294, -306, -316, -311, -309, -304, -301, -306, -309, -304, -285, -273, -275, -273, -266, -280, -306, -311, -304, -304, -301, -313, -369, -400, -191, 330, 884, 913, -23, -929, -639, -198, -385, -443, -292, -318, -352, -289, -278, -289, -261, -244, -242, -227, -218, -215, -203, -189, -174, -167, -177, -198, -210, -210, -220])
('ECG', 1756478920398478586, [-234, -246, -256, -268, -282, -301, -323, -328, -323, -323, -321, -313, -313, -313, -306, -297, -294, -299, -297, -289, -289, -292, -292, -287, -287, -289, -282, -280, -289, -299, -299, -297, -301, -304, -306, -299, -294, -309, -311, -299, -301, -306, -301, -301, -297, -294, -299, -301, -297, -294, -299, -306, -297, -282, -278, -273, -270, -268, -266, -275, -292, -301, -311, -311, -304, -304, -333, -400, -373, -7, 630, 1052, 536])
('ECG', 1756478920960223414, [-683, -1011, -414, -299, -464, -335, -278, -352, -318, -273, -289, -282, -254, -244, -239, -222, -206, -198, -194, -186, -184, -191, -201, -213, -225, -244, -258, -261, -266, -285, -304, -316, -328, -335, -330, -330, -333, -330, -330, -323, -309, -309, -311, -304, -301, -301, -294, -294, -301, -299, -299, -299, -301, -306, -306, -304, -313, -318, -313, -311, -311, -316, -323, -325, -323, -323, -323, -323, -325, -321, -313, -321, -325])
('ECG', 1756478921521978412, [-313, -309, -316, -321, -318, -318, -318, -304, -287, -275, -278, -275, -275, -292, -309, -316, -318, -309, -311, -333, -393, -397, -86, 536, 1030, 771, -345, -963, -469, -206, -450, -426, -299, -342, -352, -299, -297, -304, -282, -266, -256, -246, -239, -227, -210, -203, -210, -213, -203, -210, -232, -242, -251, -270, -282, -285, -297, -313, -328, -333, -337, -345, -340, -328, -333, -342, -330, -309, -304, -306, -309, -304, -299])
('ECG', 1756478922083728324, [-299, -306, -304, -294, -289, -297, -304, -297, -299, -316, -311, -294, -309, -318, -301, -301, -313, -306, -301, -309, -311, -306, -304, -309, -306, -297, -297, -304, -301, -297, -297, -301, -301, -297, -299, -313, -309, -285, -273, -273, -270, -263, -270, -292, -313, -309, -294, -306, -318, -340, -402, -330, 100, 709, 1001, 393, -699, -836, -301, -299, -462, -342, -301, -361, -323, -287, -304, -299, -270, -254, -249, -244, -234])
('ECG', 1756478922645478236, [-220, -213, -208, -198, -201, -215, -232, -227, -225, -246, -270, -278, -289, -301, -313, -321, -325, -333, -337, -333, -328, -328, -328, -318, -309, -311, -309, -301, -306, -304, -297, -297, -299, -294, -301, -309, -299, -297, -306, -304, -306, -313, -309, -309, -316, -311, -306, -309, -306, -306, -313, -306, -299, -306, -311, -304, -299, -292, -285, -287, -299, -299, -292, -292, -299, -299, -278, -266, -273, -266, -256, -278, -299])
('ECG', 1756478923207228148, [-304, -299, -299, -304, -318, -366, -397, -191, 340, 877, 846, -107, -949, -618, -198, -390, -419, -258, -292, -340, -282, -266, -280, -263, -239, -237, -230, -206, -186, -182, -174, -167, -182, -196, -196, -196, -208, -225, -232, -244, -256, -273, -294, -309, -309, -309, -311, -309, -309, -321, -316, -297, -297, -306, -299, -285, -285, -292, -287, -285, -292, -292, -282, -289, -304, -297, -294, -299, -299, -301, -309, -306, -304])
('ECG', 1756478923768947542, [-309, -313, -311, -311, -316, -311, -306, -306, -309, -311, -306, -304, -313, -318, -316, -313, -306, -289, -280, -280, -278, -278, -292, -311, -323, -321, -313, -316, -323, -364, -424, -282, 230, 831, 913, -16, -1004, -738, -230, -388, -448, -287, -306, -352, -299, -280, -292, -270, -256, -258, -249, -234, -222, -203, -203, -210, -208, -208, -225, -242, -254, -268, -280, -287, -299, -311, -323, -335, -335, -335, -340, -342, -335])
('ECG', 1756478924330697456, [-330, -333, -325, -318, -323, -328, -311, -294, -306, -309, -289, -292, -306, -299, -297, -304, -309, -309, -309, -311, -316, -313, -306, -311, -313, -313, -313, -316, -309, -311, -318, -313, -304, -306, -309, -306, -304, -306, -304, -306, -311, -309, -292, -278, -280, -270, -266, -287, -309, -311, -306, -304, -304, -318, -378, -402, -150, 421, 932, 786, -225, -941, -536, -201, -414, -412, -280, -333, -354, -289, -289, -306, -278])
('ECG', 1756478924892447368, [-256, -254, -244, -230, -215, -210, -203, -201, -206, -208, -210, -222, -242, -258, -263, -266, -278, -297, -316, -323, -328, -333, -328, -321, -323, -328, -323, -309, -304, -304, -299, -299, -304, -294, -285, -287, -287, -289, -289, -289, -292, -294, -297, -297, -297, -304, -306, -304, -301, -301, -306, -304, -301, -304, -301, -297, -301, -306, -299, -292, -299, -306, -301, -299, -306, -301, -280, -273, -270, -261, -251, -263, -289])
('ECG', 1756478925454197280, [-306, -309, -299, -294, -297, -311, -369, -376, -71, 517, 949, 627, -426, -910, -414, -203, -421, -378, -280, -337, -340, -278, -278, -287, -261, -244, -242, -227, -215, -210, -208, -201, -191, -189, -194, -208, -225, -239, -249, -254, -258, -278, -297, -299, -297, -306, -321, -330, -325, -311, -306, -311, -309, -292, -287, -294, -287, -282, -287, -285, -280, -285, -292, -292, -282, -285, -301, -294, -282, -287, -294, -297, -301])
('ECG', 1756478926015947192, [-294, -289, -289, -282, -297, -313, -301, -282, -289, -304, -287, -268, -287, -313, -301, -266, -261, -289, -301, -282, -254, -242, -246, -246, -234, -239, -268, -285, -289, -294, -287, -287, -337, -378, -186, 301, 774, 733, -59, -759, -529, -203, -364, -426, -323, -337, -345, -301, -309, -316, -292, -275, -280, -282, -266, -246, -246, -246, -234, -237, -251, -256, -268, -282, -287, -297, -316, -330, -335, -335, -335, -359, -371])
('ECG', 1756478926577697104, [-352, -345, -354, -352, -349, -345, -335, -328, -323, -316, -318, -318, -313, -316, -318, -316, -323, -328, -321, -313, -316, -321, -323, -321, -321, -323, -330, -330, -330, -328, -321, -316, -318, -313, -311, -316, -316, -311, -316, -311, -304, -304, -301, -292, -282, -268, -261, -275, -294, -297, -292, -299, -301, -292, -292, -335, -390, -285, 110, 594, 721, 52, -819, -769, -328, -352, -409, -301, -301, -333, -304, -292, -292])
('ECG', 1756478927139416498, [-273, -256, -254, -258, -254, -237, -230, -232, -220, -208, -220, -232, -234, -251, -266, -263, -278, -313, -333, -328, -330, -340, -335, -335, -366, -383, -357, -349, -361, -345, -318, -311, -321, -335, -330, -313, -311, -330, -345, -335, -313, -323, -333, -306, -287, -316, -371, -371, -335, -340, -357, -342, -316, -306, -328, -354, -354, -347, -342, -330, -309, -316, -345, -328, -287, -273, -299, -364, -385, -347, -333, -347, -340])
('ECG', 1756478927701166412, [-330, -383, -464, -345, 141, 735, 893, 74, -975, -872, -364, -462, -508, -309, -299, -373, -354, -325, -316, -311, -294, -266, -256, -266, -251, -225, -215, -220, -237, -258, -254, -246, -282, -297, -268, -318, -388, -349, -323, -373, -400, -385, -407, -431, -405, -385, -378, -361, -376, -383, -347, -352, -397, -381, -349, -359, -361, -342, -333, -359, -381, -359, -345, -349, -349, -361, -371, -381, -385, -364, -352, -361, -357])
('ECG', 1756478928262885806, [-345, -366, -361, -325, -349, -383, -345, -316, -335, -328, -304, -311, -318, -325, -349, -352, -335, -342, -340, -333, -376, -417, -280, 155, 747, 944, 112, -951, -829, -304, -400, -469, -309, -301, -337, -309, -311, -316, -285, -266, -251, -232, -230, -225, -203, -186, -182, -182, -201, -218, -225, -237, -242, -249, -278, -304, -304, -313, -359, -378, -364, -369, -364, -340, -373, -419, -385, -352, -373, -373, -352, -347, -345])
('ECG', 1756478928824635718, [-333, -323, -316, -316, -330, -328, -311, -318, -337, -340, -340, -328, -321, -345, -352, -337, -330, -330, -333, -340, -347, -340, -323, -330, -345, -340, -325, -318, -316, -301, -280, -285, -299, -289, -299, -340, -337, -297, -299, -323, -316, -337, -412, -297, 198, 824, 1020, 196, -913, -836, -292, -376, -464, -299, -299, -347, -289, -270, -299, -282, -254, -251, -227, -203, -210, -206, -198, -189, -167, -167, -210, -239, -225])
('ECG', 1756478929386355112, [-225, -246, -258, -285, -318, -313, -318, -361, -383, -364, -371, -397, -373, -333, -359, -385, -354, -352, -364, -347, -340, -347, -347, -337, -316, -306, -313, -316, -318, -328, -335, -333, -333, -345, -349, -330, -318, -335, -335, -323, -328, -323, -313, -321, -328, -321, -323, -321, -309, -309, -309, -306, -311, -313, -299, -287, -275, -268, -263, -263, -278, -304, -316, -306, -292, -289, -301, -337, -369, -239, 186, 735, 889])
('ECG', 1756478929948105024, [119, -834, -721, -254, -347, -421, -285, -282, -325, -294, -280, -275, -249, -234, -232, -225, -210, -196, -184, -182, -179, -167, -160, -172, -189, -203, -215, -222, -227, -246, -273, -287, -304, -330, -342, -333, -333, -342, -340, -335, -333, -325, -321, -333, -340, -333, -337, -330, -292, -285, -313, -313, -294, -299, -318, -323, -318, -318, -328, -337, -328, -306, -309, -335, -345, -337, -335, -333, -321, -313, -321, -321, -309])
('ECG', 1756478930509824418, [-306, -316, -321, -318, -311, -304, -306, -309, -309, -318, -321, -304, -289, -285, -285, -292, -287, -287, -299, -297, -292, -292, -282, -285, -299, -294, -287, -285, -270, -261, -266, -273, -282, -297, -304, -301, -301, -316, -313, -316, -376, -313, 74, 620, 920, 421, -606, -817, -335, -306, -464, -359, -304, -349, -330, -297, -309, -306, -282, -268, -256, -242, -232, -230, -218, -213, -220, -215, -213, -232, -239, -239, -258])
('ECG', 1756478931071574332, [-270, -268, -282, -301, -306, -297, -299, -311, -311, -313, -318, -311, -304, -292, -285, -292, -292, -285, -285, -282, -278, -282, -282, -266, -263, -282, -292, -285, -280, -285, -287, -292, -292, -289, -289, -292, -292, -297, -297, -287, -278, -280, -287, -287, -282, -287, -299, -294, -278, -278, -294, -306, -301, -282, -258, -268, -292, -289, -278, -289, -306, -299, -273, -251, -254, -261, -266, -263, -266, -309, -340, -299, -273])
('ECG', 1756478931633293726, [-301, -337, -361, -206, 251, 733, 752, 0, -745, -558, -208, -354, -421, -301, -311, -335, -282, -275, -292, -268, -244, -239, -232, -218, -208, -206, -191, -172, -170, -189, -196, -194, -198, -210, -220, -232, -246, -266, -280, -275, -278, -287, -304, -335, -359, -328, -280, -292, -306, -263, -254, -297, -280, -263, -321, -325, -254, -258, -321, -292, -230, -278, -345, -297, -251, -330, -361, -242, -227, -328, -328, -282, -299])
('ECG', 1756478932195043638, [-354, -352, -294, -258, -282, -333, -294, -220, -251, -297, -282, -292, -306, -234, -174, -213, -270, -263, -232, -244, -275, -244, -201, -218, -261, -280, -275, -270, -299, -285, -273, -359, -225, 301, 795, 757, -33, -774, -589, -237, -333, -383, -299, -282, -297, -313, -297, -237, -220, -232, -227, -220, -213, -203, -203, -222, -206, -179, -206, -170, -117, -191, -256, -234, -237, -275, -304, -294, -285, -333, -376, -325, -275])
('ECG', 1756478932756763032, [-309, -337, -313, -309, -321, -311, -297, -304, -311, -292, -287, -313, -299, -263, -278, -309, -304, -287, -301, -333, -304, -251, -289, -335, -294, -285, -318, -294, -287, -337, -335, -273, -285, -347, -316, -254, -285, -316, -292, -287, -278, -251, -256, -266, -261, -280, -304, -311, -316, -297, -270, -294, -361, -378, -186, 256, 699, 685, -93, -812, -579, -246, -366, -359, -263, -325, -330, -261, -261, -280, -270, -270, -261])
('ECG', 1756478933318512944, [-222, -201, -206, -189, -174, -174, -177, -179, -189, -194, -177, -174, -203, -237, -261, -285, -309, -311, -285, -294, -345, -323, -268, -299, -330, -285, -278, -321, -306, -280, -309, -330, -294, -266, -275, -282, -294, -313, -313, -313, -321, -323, -325, -328, -313, -304, -318, -311, -289, -301, -323, -330, -333, -335, -345, -333, -304, -273, -261, -285, -297, -289, -321, -345, -318, -318, -340, -330, -333, -373, -330, -23, 467])
('ECG', 1756478933880232338, [750, 313, -587, -798, -364, -268, -390, -352, -318, -335, -311, -268, -256, -263, -280, -301, -280, -203, -179, -215, -201, -165, -186, -208, -218, -239, -232, -206, -203, -234, -275, -289, -311, -342, -321, -301, -318, -342, -349, -311, -289, -316, -330, -316, -306, -294, -301, -335, -289, -222, -297, -337, -251, -270, -371, -349, -297, -309, -275, -249, -294, -309, -299, -316, -323, -318, -323, -321, -294, -254, -242, -273, -311])
('ECG', 1756478934441977166, [-309, -266, -270, -349, -376, -299, -222, -268, -381, -400, -139, 371, 740, 500, -395, -929, -517, -177, -325, -369, -278, -304, -323, -263, -254, -278, -239, -222, -258, -220, -153, -179, -191, -158, -155, -186, -179, -131, -174, -234, -182, -220, -318, -256, -218, -309, -316, -282, -340, -381, -340, -325, -345, -342, -309, -270, -292, -340, -313, -285, -309, -316, -297, -297, -313, -313, -313, -337, -325, -282, -285, -304, -304])
('ECG', 1756478935003691474, [-309, -311, -304, -309, -323, -311, -280, -270, -278, -266, -270, -311, -330, -325, -325, -330, -321, -304, -340, -354, -103, 390, 704, 369, -505, -874, -445, -232, -385, -347, -256, -299, -306, -263, -266, -275, -249, -220, -213, -213, -225, -225, -186, -139, -146, -191, -194, -150, -155, -208, -234, -225, -227, -266, -306, -292, -275, -316, -340, -321, -325, -342, -328, -299, -278, -282, -306, -299, -263, -258, -285, -304, -299])
('ECG', 1756478935565421040, [-282, -270, -268, -289, -321, -318, -297, -301, -292, -273, -297, -304, -273, -263, -268, -254, -237, -254, -311, -330, -282, -242, -261, -285, -287, -311, -347, -201, 256, 752, 771, -31, -855, -675, -251, -321, -345, -227, -258, -289, -225, -210, -237, -218, -184, -182, -179, -143, -122, -124, -119, -112, -117, -122, -129, -143, -153, -170, -198, -218, -225, -230, -230, -239, -258, -268, -280, -294, -289, -275, -273, -266, -254])
('ECG', 1756478936127140434, [-251, -261, -270, -273, -258, -237, -242, -266, -273, -266, -268, -285, -280, -254, -254, -268, -273, -270, -261, -249, -258, -263, -239, -242, -287, -292, -268, -273, -285, -285, -311, -366, -232, 309, 970, 1061, 55, -1028, -776, -208, -330, -390, -237, -251, -275, -225, -232, -249, -225, -196, -179, -189, -196, -172, -162, -165, -139, -143, -186, -198, -194, -220, -251, -234, -225, -261, -266, -249, -275, -301, -299, -309, -309])
('ECG', 1756478936688859828, [-292, -289, -316, -325, -280, -242, -258, -273, -268, -268, -282, -280, -251, -263, -309, -301, -275, -287, -304, -289, -280, -292, -297, -280, -273, -294, -301, -285, -270, -270, -282, -301, -304, -294, -297, -330, -359, -342, -198, 225, 819, 1011, 167, -917, -786, -220, -311, -417, -258, -242, -304, -273, -239, -249, -237, -215, -213, -203, -186, -179, -170, -167, -172, -177, -184, -186, -203, -234, -239, -225, -232, -254, -266])
('ECG', 1756478937250579224, [-268, -278, -292, -299, -289, -285, -297, -289, -273, -280, -285, -273, -256, -251, -256, -256, -256, -261, -266, -268, -268, -268, -270, -278, -280, -280, -280, -278, -275, -275, -273, -273, -280, -287, -289, -289, -285, -275, -258, -244, -244, -246, -268, -289, -287, -278, -278, -278, -282, -328, -402, -299, 179, 819, 1059, 278, -853, -817, -232, -292, -426, -287, -268, -325, -287, -261, -273, -261, -246, -237, -215, -203, -203])
('ECG', 1756478937812329136, [-198, -189, -182, -182, -189, -196, -208, -230, -242, -246, -251, -258, -273, -287, -297, -294, -294, -306, -318, -316, -313, -301, -292, -294, -294, -287, -285, -282, -275, -270, -278, -278, -275, -285, -289, -280, -273, -285, -299, -301, -297, -294, -299, -304, -294, -287, -292, -297, -297, -297, -289, -282, -282, -285, -278, -278, -287, -285, -273, -275, -287, -294, -292, -273, -254, -251, -258, -249, -244, -273, -292, -287, -287])
('ECG', 1756478938374048530, [-292, -297, -306, -359, -390, -119, 498, 1044, 834, -299, -958, -460, -182, -424, -378, -244, -304, -318, -261, -261, -268, -242, -227, -222, -210, -203, -198, -186, -179, -174, -172, -189, -210, -213, -215, -239, -254, -249, -249, -266, -282, -294, -297, -289, -318, -337, -278, -244, -294, -299, -237, -230, -289, -311, -268, -256, -292, -321, -311, -263, -234, -258, -280, -280, -280, -297, -311, -309, -309, -313, -306, -304, -311])
('ECG', 1756478938935767924, [-306, -299, -306, -311, -306, -301, -304, -311, -313, -313, -309, -297, -289, -294, -292, -287, -294, -297, -285, -270, -256, -249, -251, -244, -246, -275, -294, -294, -292, -289, -292, -311, -364, -388, -119, 496, 1054, 850, -325, -1042, -536, -215, -433, -381, -234, -289, -306, -242, -234, -244, -220, -208, -222, -218, -179, -148, -148, -153, -146, -146, -158, -179, -198, -208, -225, -246, -249, -249, -261, -261, -258, -282, -309])
('ECG', 1756478939497538180, [-311, -304, -304, -309, -311, -309, -297, -287, -285, -285, -285, -282, -273, -270, -280, -273, -258, -261, -275, -285, -285, -289, -299, -301, -297, -299, -306, -294, -278, -285, -292, -282, -285, -292, -294, -299, -301, -289, -285, -285, -285, -289, -289, -280, -280, -278, -263, -258, -261, -251, -256, -282, -294, -292, -289, -282, -278, -309, -383, -388, -62, 608, 1183, 877, -431, -1107, -517, -220, -448, -369, -234, -309, -323])
('ECG', 1756478940059237230, [-256, -254, -266, -249, -227, -208, -201, -201, -189, -174, -167, -172, -174, -177, -194, -222, -249, -256, -256, -256, -249, -256, -285, -304, -309, -311, -309, -306, -316, -321, -318, -323, -318, -297, -294, -306, -292, -275, -278, -280, -278, -282, -285, -278, -280, -294, -297, -287, -289, -294, -297, -299, -299, -292, -289, -294, -297, -299, -299, -289, -285, -285, -287, -292, -287, -275, -270, -273, -270, -273, -280, -289, -287])
('ECG', 1756478940620956624, [-275, -266, -270, -278, -280, -270, -263, -254, -244, -242, -239, -234, -237, -254, -270, -270, -256, -258, -278, -318, -390, -306, 182, 896, 1294, 642, -668, -891, -239, -242, -486, -330, -249, -340, -311, -258, -278, -268, -232, -225, -227, -215, -194, -179, -174, -170, -170, -167, -174, -194, -210, -220, -225, -222, -232, -261, -275, -280, -297, -311, -309, -309, -311, -306, -301, -299, -294, -297, -301, -289, -280, -285, -282])
('ECG', 1756478941182676020, [-273, -278, -280, -273, -268, -270, -273, -273, -268, -266, -275, -280, -275, -278, -285, -285, -273, -273, -282, -275, -270, -273, -270, -266, -266, -273, -275, -268, -266, -268, -273, -273, -263, -254, -254, -261, -263, -266, -266, -263, -258, -261, -263, -254, -256, -261, -256, -256, -266, -266, -258, -251, -246, -244, -251, -251, -234, -225, -242, -256, -258, -268, -273, -270, -278, -325, -393, -261, 258, 956, 1251, 440, -783])
('ECG', 1756478941744395414, [-788, -203, -294, -455, -301, -273, -337, -304, -263, -261, -246, -232, -222, -210, -201, -194, -186, -179, -174, -167, -165, -172, -186, -201, -206, -213, -232, -246, -251, -261, -278, -285, -282, -285, -287, -287, -280, -282, -287, -285, -280, -275, -275, -273, -268, -268, -268, -261, -256, -261, -266, -261, -261, -266, -275, -282, -278, -273, -280, -287, -280, -278, -280, -280, -278, -278, -278, -280, -278, -275, -275, -275, -270])
('ECG', 1756478942306114808, [-263, -263, -270, -278, -278, -275, -273, -266, -258, -258, -263, -266, -266, -266, -266, -268, -273, -266, -256, -256, -256, -251, -256, -270, -273, -258, -254, -263, -266, -251, -249, -263, -263, -242, -234, -242, -242, -227, -225, -237, -249, -261, -268, -263, -256, -266, -311, -385, -309, 139, 810, 1200, 615, -606, -846, -256, -237, -460, -337, -263, -330, -306, -261, -273, -268, -244, -234, -230, -213, -203, -198, -189, -184])
('ECG', 1756478942867864720, [-177, -170, -182, -198, -201, -218, -242, -242, -239, -251, -261, -268, -280, -287, -289, -289, -289, -297, -289, -275, -278, -285, -280, -280, -278, -268, -263, -261, -258, -268, -280, -273, -261, -263, -268, -268, -268, -268, -273, -278, -278, -280, -278, -278, -285, -289, -282, -280, -282, -278, -270, -268, -275, -282, -278, -266, -263, -273, -278, -268, -258, -258, -261, -261, -263, -261, -254, -254, -261, -256, -244, -251, -258])
('ECG', 1756478943429558684, [-249, -246, -258, -261, -251, -244, -237, -234, -230, -220, -222, -237, -246, -256, -268, -266, -258, -270, -316, -376, -261, 230, 879, 1116, 345, -759, -728, -191, -292, -443, -294, -263, -316, -282, -254, -258, -246, -230, -225, -220, -203, -186, -182, -179, -167, -158, -160, -167, -179, -203, -225, -234, -239, -251, -263, -270, -275, -282, -289, -299, -306, -304, -299, -294, -289, -287, -282, -282, -287, -282, -273, -273, -270])
('ECG', 1756478943991303508, [-261, -261, -275, -278, -275, -268, -263, -273, -280, -278, -278, -282, -285, -280, -275, -273, -273, -275, -275, -273, -280, -278, -266, -268, -275, -270, -263, -261, -266, -263, -263, -270, -270, -254, -246, -256, -261, -254, -251, -254, -256, -254, -258, -261, -261, -258, -251, -242, -244, -237, -222, -237, -251, -237, -227, -242, -249, -258, -263, -254, -254, -282, -347, -369, -100, 493, 1028, 877, -191, -927, -496, -155, -381])
('ECG', 1756478944553022904, [-381, -246, -294, -306, -251, -258, -258, -220, -208, -210, -191, -182, -186, -170, -153, -150, -148, -158, -158, -158, -191, -220, -213, -218, -244, -261, -268, -268, -275, -292, -297, -287, -292, -297, -285, -285, -297, -287, -270, -270, -273, -256, -251, -268, -273, -266, -273, -280, -263, -251, -263, -278, -275, -273, -282, -289, -278, -270, -278, -282, -280, -278, -278, -278, -278, -275, -275, -275, -275, -278, -270, -266, -270])
('ECG', 1756478945114742298, [-270, -263, -266, -270, -268, -266, -270, -273, -266, -263, -266, -258, -237, -234, -251, -244, -230, -246, -263, -261, -270, -275, -268, -270, -311, -385, -292, 186, 822, 1066, 328, -807, -829, -244, -280, -421, -275, -251, -313, -268, -237, -261, -249, -215, -208, -203, -186, -177, -177, -174, -162, -158, -162, -174, -194, -208, -220, -234, -249, -258, -270, -278, -282, -292, -299, -301, -297, -301, -316, -306, -285, -287, -297])
('ECG', 1756478945676461692, [-292, -280, -275, -270, -270, -273, -273, -273, -275, -270, -270, -273, -270, -275, -280, -282, -280, -280, -280, -280, -275, -270, -275, -278, -273, -273, -275, -275, -270, -263, -266, -278, -275, -263, -263, -263, -261, -263, -261, -256, -256, -261, -263, -263, -263, -261, -256, -254, -254, -242, -244, -251, -237, -230, -246, -251, -256, -275, -278, -266, -282, -354, -366, -71, 532, 1040, 838, -239, -908, -455, -167, -397, -376])
('ECG', 1756478946238181086, [-251, -309, -321, -258, -251, -258, -237, -222, -215, -203, -189, -179, -172, -165, -153, -153, -162, -170, -174, -191, -210, -218, -227, -246, -266, -273, -287, -309, -311, -297, -299, -306, -309, -304, -299, -297, -292, -282, -280, -282, -278, -278, -280, -278, -273, -270, -273, -280, -285, -278, -280, -287, -282, -280, -285, -287, -282, -282, -287, -289, -285, -282, -282, -278, -275, -278, -273, -273, -278, -266, -254, -256, -254])
('ECG', 1756478946799900480, [-251, -256, -251, -246, -244, -234, -222, -218, -220, -225, -234, -246, -256, -251, -251, -266, -311, -376, -263, 222, 838, 1030, 239, -831, -757, -210, -292, -412, -266, -256, -304, -256, -237, -254, -232, -210, -203, -189, -172, -165, -167, -160, -143, -139, -148, -160, -165, -174, -189, -201, -215, -232, -251, -263, -280, -297, -309, -304, -299, -301, -306, -309, -299, -294, -294, -285, -270, -275, -275, -261, -263, -270, -266])
('ECG', 1756478947361619874, [-268, -278, -275, -270, -270, -270, -280, -287, -278, -275, -287, -285, -278, -282, -289, -285, -278, -278, -280, -275, -278, -285, -287, -282, -268, -244, -234, -242, -239, -239, -263, -278, -278, -273, -261, -258, -306, -393, -328, 107, 740, 1047, 381, -788, -903, -294, -263, -402, -268, -234, -297, -258, -227, -242, -230, -201, -191, -182, -165, -153, -143, -136, -131, -129, -136, -146, -153, -165, -182, -196, -208, -222, -242])
('ECG', 1756478947923339270, [-261, -280, -292, -297, -306, -309, -304, -304, -301, -285, -275, -278, -280, -275, -278, -280, -268, -258, -263, -270, -268, -268, -268, -273, -278, -275, -270, -278, -278, -282, -294, -294, -285, -280, -282, -287, -289, -285, -285, -287, -282, -282, -289, -287, -282, -285, -280, -258, -244, -246, -244, -239, -251, -270, -278, -273, -273, -278, -292, -352, -381, -115, 491, 1032, 877, -218, -973, -522, -167, -397, -395, -256, -304])
('ECG', 1756478948485058664, [-321, -266, -263, -263, -232, -222, -225, -206, -189, -191, -174, -150, -153, -162, -158, -158, -174, -184, -191, -213, -230, -239, -256, -280, -294, -301, -299, -301, -309, -306, -297, -301, -304, -289, -280, -282, -285, -285, -278, -261, -261, -266, -261, -266, -275, -270, -266, -275, -273, -273, -282, -282, -275, -275, -285, -285, -275, -275, -278, -275, -278, -280, -278, -275, -275, -273, -280, -289, -287, -273, -266, -254, -242])
('ECG', 1756478949046778058, [-239, -237, -244, -266, -282, -285, -275, -266, -278, -333, -397, -244, 278, 893, 1035, 189, -846, -704, -186, -316, -426, -273, -270, -323, -275, -254, -266, -244, -225, -225, -206, -182, -167, -158, -150, -148, -146, -146, -153, -167, -184, -194, -201, -215, -234, -256, -270, -285, -294, -304, -301, -301, -301, -297, -292, -289, -287, -282, -275, -268, -275, -270, -256, -254, -261, -261, -261, -263, -263, -261, -258, -266, -268])
('ECG', 1756478949608497452, [-270, -273, -280, -278, -270, -268, -273, -275, -270, -268, -270, -270, -266, -261, -266, -270, -266, -258, -258, -258, -261, -266, -266, -258, -246, -246, -251, -246, -246, -256, -261, -256, -244, -239, -249, -256, -251, -246, -249, -254, -249, -246, -251, -249, -244, -244, -254, -258, -246, -232, -227, -225, -220, -220, -225, -227, -239, -263, -270, -261, -263, -297, -364, -330, 28, 644, 1088, 716, -412, -862, -342, -194, -424])
('ECG', 1756478950170216846, [-345, -251, -321, -311, -254, -261, -261, -239, -232, -218, -196, -186, -182, -170, -165, -160, -153, -155, -167, -186, -201, -210, -225, -234, -230, -234, -251, -261, -263, -268, -273, -273, -270, -273, -273, -268, -261, -261, -258, -254, -254, -251, -254, -261, -254, -246, -254, -258, -251, -249, -258, -263, -266, -268, -273, -278, -275, -280, -285, -275, -263, -275, -287, -282, -273, -273, -275, -278, -273, -275, -278, -270, -258])
('ECG', 1756478950731936240, [-261, -270, -270, -263, -261, -263, -258, -251, -249, -242, -237, -232, -222, -225, -239, -246, -256, -266, -266, -270, -287, -340, -357, -83, 512, 1008, 786, -275, -905, -436, -150, -383, -361, -237, -292, -292, -232, -242, -249, -218, -208, -203, -179, -167, -165, -153, -143, -141, -141, -148, -162, -179, -189, -194, -206, -225, -234, -249, -266, -278, -285, -285, -287, -292, -292, -287, -285, -278, -270, -270, -266, -256, -254])
('ECG', 1756478951293655636, [-258, -261, -258, -249, -244, -246, -246, -246, -254, -261, -261, -258, -261, -261, -266, -268, -263, -266, -268, -268, -268, -268, -263, -258, -256, -263, -263, -251, -251, -258, -256, -249, -251, -254, -249, -249, -251, -256, -256, -249, -249, -251, -242, -234, -232, -227, -232, -234, -220, -218, -237, -251, -258, -258, -256, -256, -285, -347, -313, 35, 627, 1023, 608, -479, -841, -299, -172, -397, -311, -218, -280, -268, -222])
('ECG', 1756478951855375030, [-237, -237, -208, -191, -189, -167, -153, -155, -146, -124, -127, -139, -143, -150, -170, -182, -189, -194, -208, -227, -246, -261, -266, -266, -270, -275, -280, -282, -278, -273, -273, -273, -266, -256, -251, -254, -256, -261, -263, -254, -242, -251, -258, -258, -261, -263, -266, -273, -275, -270, -273, -278, -278, -280, -275, -268, -268, -275, -280, -280, -273, -270, -270, -266, -263, -256, -244, -251, -256, -251, -251, -251, -251])
('ECG', 1756478952417094424, [-254, -254, -246, -244, -249, -249, -249, -237, -222, -230, -239, -218, -198, -215, -232, -246, -258, -249, -237, -249, -299, -352, -196, 299, 865, 941, 95, -824, -623, -158, -297, -373, -232, -246, -292, -246, -225, -230, -206, -186, -184, -174, -158, -153, -150, -139, -134, -134, -129, -134, -158, -177, -179, -184, -206, -227, -234, -242, -254, -266, -273, -282, -282, -278, -275, -278, -278, -273, -263, -258, -263, -258, -251])
('ECG', 1756478952978813818, [-256, -258, -246, -242, -254, -263, -261, -258, -266, -261, -251, -270, -287, -268, -258, -268, -278, -275, -270, -258, -251, -270, -278, -258, -254, -270, -273, -261, -261, -261, -254, -244, -246, -256, -251, -244, -251, -244, -227, -218, -215, -220, -215, -203, -210, -218, -227, -249, -251, -234, -234, -268, -337, -323, 21, 649, 1083, 632, -553, -958, -385, -203, -371, -268, -201, -266, -242, -194, -208, -213, -194, -186, -162])
('ECG', 1756478953540533212, [-134, -136, -141, -124, -115, -122, -124, -127, -136, -150, -174, -196, -194, -198, -227, -246, -251, -261, -273, -280, -273, -278, -292, -292, -278, -266, -263, -270, -270, -266, -251, -242, -246, -251, -244, -237, -239, -239, -251, -256, -254, -258, -266, -266, -268, -268, -263, -266, -266, -266, -273, -275, -275, -275, -268, -261, -258, -256, -261, -266, -261, -258, -261, -258, -263, -263, -244, -230, -244, -249, -215, -206, -237])
('ECG', 1756478954102252606, [-258, -263, -270, -270, -263, -266, -325, -395, -198, 393, 999, 992, -43, -997, -654, -167, -342, -369, -213, -254, -287, -222, -213, -225, -196, -186, -194, -177, -148, -139, -139, -124, -112, -122, -129, -131, -148, -170, -184, -198, -210, -215, -227, -246, -258, -251, -246, -261, -275, -270, -261, -266, -266, -254, -246, -239, -234, -239, -242, -239, -237, -237, -242, -242, -237, -237, -242, -239, -239, -251, -261, -256, -256])
('ECG', 1756478954663972002, [-266, -268, -263, -266, -270, -270, -249, -239, -251, -242, -225, -242, -278, -294, -275, -244, -230, -222, -218, -227, -232, -230, -244, -261, -261, -251, -246, -232, -215, -237, -256, -239, -225, -239, -268, -280, -280, -280, -266, -282, -364, -364, -26, 601, 1107, 824, -340, -939, -426, -206, -433, -318, -189, -299, -294, -220, -261, -280, -232, -208, -210, -201, -189, -172, -153, -141, -143, -146, -141, -146, -167, -179, -184])
('ECG', 1756478955225691396, [-196, -213, -227, -239, -261, -275, -280, -285, -287, -282, -278, -275, -278, -270, -258, -258, -263, -258, -251, -251, -251, -239, -232, -244, -251, -249, -249, -244, -244, -254, -258, -256, -256, -263, -268, -263, -263, -268, -258, -249, -254, -258, -261, -261, -261, -258, -251, -256, -266, -256, -246, -249, -251, -246, -242, -246, -251, -246, -242, -232, -222, -230, -242, -220, -194, -206, -232, -244, -256, -263, -254, -256, -297])
('ECG', 1756478955787410790, [-354, -280, 127, 728, 1054, 484, -613, -786, -237, -222, -412, -285, -213, -285, -270, -227, -234, -230, -198, -191, -186, -179, -170, -141, -115, -119, -127, -124, -127, -134, -146, -165, -177, -184, -198, -220, -237, -246, -261, -270, -268, -266, -270, -273, -266, -266, -270, -258, -249, -251, -242, -237, -242, -242, -234, -234, -234, -237, -244, -246, -249, -246, -239, -244, -256, -254, -244, -239, -251, -261, -256, -249, -251])
('ECG', 1756478956349130184, [-251, -246, -239, -237, -246, -254, -249, -251, -261, -249, -242, -249, -234, -218, -218, -220, -225, -232, -230, -222, -218, -220, -232, -222, -203, -218, -239, -242, -244, -246, -246, -251, -285, -340, -278, 110, 716, 1068, 520, -618, -841, -258, -196, -383, -268, -213, -280, -244, -194, -203, -201, -186, -184, -170, -153, -150, -141, -122, -119, -122, -112, -112, -129, -150, -165, -184, -194, -189, -203, -237, -249, -254, -273])
('ECG', 1756478956910824148, [-275, -273, -285, -289, -275, -270, -282, -285, -280, -275, -263, -249, -251, -261, -258, -256, -266, -268, -254, -251, -268, -278, -273, -275, -285, -292, -278, -256, -273, -299, -292, -282, -297, -306, -304, -301, -309, -301, -275, -273, -299, -297, -282, -285, -292, -294, -297, -304, -311, -289, -254, -268, -282, -244, -232, -278, -297, -287, -301, -304, -275, -294, -369, -395, -191, 313, 865, 893, -38, -922, -625, -189, -366])
('ECG', 1756478957472538456, [-405, -258, -289, -325, -258, -244, -258, -227, -198, -198, -189, -165, -146, -136, -139, -136, -127, -127, -139, -146, -155, -177, -196, -203, -218, -230, -234, -249, -268, -273, -278, -280, -275, -275, -270, -261, -256, -258, -258, -256, -249, -244, -239, -234, -230, -237, -244, -225, -215, -239, -246, -234, -239, -246, -237, -222, -227, -237, -237, -242, -251, -256, -239, -222, -232, -242, -232, -230, -246, -254, -242, -232, -232])
('ECG', 1756478958034257850, [-227, -227, -234, -237, -232, -220, -220, -234, -225, -201, -213, -232, -208, -189, -208, -220, -220, -232, -242, -237, -246, -289, -347, -244, 215, 843, 1104, 393, -726, -762, -189, -234, -397, -270, -234, -285, -249, -218, -227, -206, -177, -186, -189, -162, -148, -141, -117, -107, -107, -100, -105, -134, -162, -179, -184, -182, -182, -203, -239, -251, -246, -256, -280, -289, -285, -275, -273, -278, -268, -261, -273, -266, -246])
('ECG', 1756478958595977244, [-249, -258, -258, -261, -263, -249, -234, -246, -256, -251, -256, -261, -258, -261, -261, -261, -266, -270, -249, -230, -256, -280, -268, -261, -258, -254, -256, -256, -254, -251, -254, -254, -246, -244, -242, -227, -206, -218, -242, -246, -256, -263, -254, -254, -266, -321, -393, -215, 369, 1006, 1020, -28, -1006, -671, -189, -357, -366, -201, -244, -285, -225, -213, -225, -191, -170, -172, -160, -146, -143, -131, -117, -115, -117])
('ECG', 1756478959157696638, [-117, -131, -148, -160, -177, -198, -208, -213, -230, -256, -275, -275, -275, -282, -287, -289, -289, -287, -280, -270, -266, -261, -258, -256, -258, -256, -251, -256, -263, -256, -256, -261, -261, -268, -278, -282, -280, -273, -285, -301, -292, -273, -278, -287, -282, -282, -289, -282, -273, -273, -268, -268, -280, -282, -270, -268, -278, -278, -278, -280, -273, -251, -242, -244, -244, -225, -225, -251, -273, -278, -270, -263, -270])
('ECG', 1756478959719416032, [-306, -378, -340, 71, 747, 1183, 685, -553, -913, -299, -201, -445, -330, -237, -313, -297, -244, -263, -268, -234, -218, -210, -191, -177, -167, -155, -146, -146, -153, -160, -162, -174, -191, -201, -206, -220, -237, -246, -261, -275, -278, -285, -292, -289, -287, -287, -282, -273, -268, -270, -270, -258, -251, -256, -258, -254, -251, -256, -258, -254, -251, -256, -256, -258, -263, -266, -263, -261, -263, -268, -263, -258, -261])
('ECG', 1756478960281135426, [-263, -258, -261, -266, -268, -266, -263, -258, -251, -251, -254, -246, -246, -249, -239, -242, -249, -234, -222, -234, -244, -239, -234, -225, -210, -210, -210, -201, -210, -237, -246, -244, -246, -249, -258, -311, -364, -177, 388, 1020, 1143, 232, -817, -637, -141, -316, -421, -258, -263, -316, -258, -237, -251, -225, -203, -206, -198, -182, -174, -160, -143, -139, -143, -143, -150, -167, -177, -184, -198, -210, -220, -232, -242])
('ECG', 1756478960842824304, [-251, -261, -268, -273, -280, -280, -273, -268, -266, -263, -258, -251, -254, -254, -246, -242, -242, -242, -246, -254, -246, -244, -249, -251, -249, -254, -258, -254, -256, -266, -263, -258, -263, -266, -254, -251, -261, -258, -254, -256, -258, -261, -258, -258, -256, -251, -251, -256, -254, -251, -256, -261, -261, -254, -249, -258, -263, -254, -242, -232, -230, -232, -230, -237, -256, -266, -266, -256, -249, -258, -299, -364, -297])
('ECG', 1756478961404543698, [105, 714, 1092, 606, -536, -824, -261, -196, -417, -316, -230, -285, -278, -242, -242, -218, -189, -189, -186, -167, -162, -155, -134, -122, -119, -122, -131, -139, -146, -167, -184, -182, -184, -203, -222, -237, -244, -254, -270, -275, -263, -258, -261, -258, -261, -263, -254, -244, -242, -249, -249, -239, -239, -249, -251, -246, -246, -246, -249, -258, -261, -256, -261, -268, -263, -251, -254, -256, -258, -254, -244, -246, -256])
('ECG', 1756478961966263092, [-254, -249, -254, -251, -239, -244, -261, -254, -242, -246, -256, -251, -244, -237, -225, -215, -210, -203, -213, -237, -242, -239, -242, -246, -246, -266, -328, -309, 40, 673, 1119, 659, -570, -956, -337, -186, -397, -289, -201, -270, -254, -206, -218, -215, -191, -189, -182, -158, -143, -143, -131, -115, -110, -115, -122, -141, -160, -160, -167, -186, -196, -203, -218, -227, -237, -256, -263, -261, -266, -273, -266, -254, -249])
('ECG', 1756478962527982486, [-254, -254, -239, -234, -239, -244, -242, -239, -244, -249, -237, -232, -244, -251, -246, -254, -258, -258, -266, -263, -261, -261, -261, -261, -263, -258, -256, -263, -268, -263, -261, -263, -263, -261, -258, -258, -263, -254, -230, -225, -232, -222, -218, -242, -258, -263, -266, -263, -256, -273, -342, -335, 21, 661, 1102, 675, -505, -917, -328, -174, -402, -306, -213, -285, -270, -220, -234, -232, -203, -201, -198, -174, -155])
('ECG', 1756478963089701880, [-141, -139, -139, -129, -127, -143, -160, -165, -179, -198, -203, -203, -222, -242, -246, -249, -263, -268, -263, -263, -275, -273, -256, -251, -258, -251, -237, -239, -249, -237, -227, -239, -246, -242, -242, -249, -249, -249, -249, -249, -258, -266, -254, -244, -251, -256, -254, -258, -258, -254, -254, -256, -256, -256, -251, -249, -254, -254, -246, -251, -256, -249, -249, -256, -256, -246, -230, -222, -218, -210, -222, -251, -263])
('ECG', 1756478963651395844, [-258, -254, -254, -258, -292, -366, -280, 189, 829, 1092, 400, -707, -762, -203, -249, -414, -275, -244, -306, -266, -234, -251, -237, -210, -208, -201, -179, -165, -158, -155, -153, -148, -153, -165, -172, -177, -194, -213, -213, -220, -237, -249, -256, -261, -266, -270, -275, -278, -273, -270, -270, -263, -256, -249, -246, -251, -249, -244, -251, -258, -251, -246, -256, -266, -266, -263, -263, -263, -268, -270, -268, -270, -270])
('ECG', 1756478964213110150, [-270, -270, -268, -270, -275, -268, -261, -263, -263, -261, -261, -254, -249, -246, -249, -256, -258, -256, -261, -249, -227, -225, -227, -215, -218, -242, -251, -249, -254, -251, -246, -278, -347, -313, 64, 687, 1059, 560, -556, -843, -278, -186, -402, -299, -215, -289, -278, -222, -222, -225, -208, -198, -182, -170, -167, -158, -143, -143, -148, -146, -153, -165, -174, -189, -203, -210, -215, -227, -239, -249, -258, -263, -263])
('ECG', 1756478964774829546, [-266, -270, -266, -254, -251, -256, -251, -239, -239, -239, -232, -232, -237, -239, -237, -237, -239, -246, -249, -246, -244, -251, -251, -246, -249, -251, -249, -246, -254, -254, -251, -251, -254, -251, -244, -242, -249, -244, -232, -237, -246, -239, -237, -249, -258, -246, -227, -222, -222, -208, -198, -222, -246, -254, -251, -246, -244, -256, -301, -357, -201, 323, 886, 910, 28, -850, -603, -148, -304, -369, -227, -251, -292])
('ECG', 1756478965336538768, [-239, -227, -234, -203, -189, -191, -184, -165, -155, -150, -146, -139, -134, -134, -146, -160, -172, -191, -206, -210, -213, -225, -234, -242, -249, -256, -251, -246, -249, -246, -242, -242, -239, -237, -234, -227, -225, -234, -239, -234, -234, -237, -239, -244, -249, -246, -239, -242, -246, -251, -254, -251, -251, -258, -256, -254, -256, -256, -244, -237, -244, -249, -246, -244, -244, -244, -244, -246, -244, -234, -239, -249, -246])
('ECG', 1756478965898237816, [-237, -220, -206, -213, -213, -196, -206, -232, -237, -230, -230, -230, -234, -282, -330, -160, 352, 886, 867, -19, -836, -551, -129, -294, -349, -208, -232, -273, -220, -203, -220, -198, -179, -182, -165, -141, -141, -146, -134, -131, -139, -146, -155, -174, -191, -196, -203, -210, -218, -222, -230, -237, -242, -256, -263, -256, -242, -244, -244, -237, -234, -239, -239, -232, -227, -237, -239, -237, -239, -242, -232, -232, -239])
('ECG', 1756478966459957210, [-239, -242, -246, -246, -249, -254, -254, -249, -246, -249, -244, -242, -239, -239, -237, -234, -234, -237, -234, -237, -237, -227, -225, -237, -242, -234, -242, -251, -239, -218, -210, -213, -208, -201, -220, -251, -256, -246, -246, -246, -249, -294, -337, -129, 414, 908, 766, -186, -869, -481, -139, -333, -337, -208, -256, -278, -215, -208, -222, -201, -186, -186, -172, -150, -146, -148, -139, -134, -141, -153, -167, -177, -186])
('ECG', 1756478967021646086, [-201, -215, -218, -210, -220, -239, -239, -230, -239, -256, -256, -246, -244, -244, -244, -239, -234, -232, -232, -230, -232, -239, -244, -239, -239, -246, -251, -249, -246, -249, -246, -244, -249, -254, -258, -261, -258, -251, -246, -256, -266, -256, -249, -254, -258, -256, -251, -249, -249, -251, -254, -258, -256, -242, -227, -220, -208, -196, -203, -237, -254, -244, -232, -234, -242, -263, -313, -282, 43, 579, 824, 280, -639])
('ECG', 1756478967583365480, [-757, -258, -196, -335, -244, -196, -246, -232, -196, -196, -186, -165, -150, -143, -143, -139, -124, -115, -115, -115, -110, -112, -129, -148, -160, -172, -182, -191, -206, -220, -234, -244, -251, -256, -268, -273, -266, -263, -263, -256, -239, -234, -239, -239, -239, -244, -246, -246, -246, -244, -244, -246, -254, -249, -239, -251, -263, -256, -249, -254, -258, -258, -256, -254, -258, -256, -251, -258, -270, -268, -237, -218, -227])
('ECG', 1756478968145054358, [-232, -218, -225, -254, -261, -251, -249, -251, -251, -287, -361, -263, 220, 822, 941, 112, -867, -711, -194, -285, -369, -232, -232, -273, -225, -210, -227, -203, -182, -184, -182, -162, -150, -153, -158, -155, -146, -148, -170, -194, -198, -201, -213, -222, -230, -244, -254, -249, -256, -278, -285, -282, -275, -273, -273, -268, -256, -249, -254, -249, -237, -242, -254, -251, -239, -239, -251, -251, -249, -256, -254, -246, -258])
('ECG', 1756478968706773752, [-275, -275, -266, -263, -261, -251, -254, -261, -261, -254, -246, -246, -254, -258, -261, -263, -251, -234, -225, -222, -220, -206, -213, -249, -263, -254, -242, -242, -254, -275, -337, -328, 11, 611, 985, 556, -491, -831, -318, -177, -366, -294, -218, -280, -273, -220, -215, -215, -196, -182, -177, -172, -165, -155, -146, -146, -146, -139, -150, -170, -177, -194, -220, -225, -215, -220, -237, -246, -246, -251, -266, -268, -268])
('ECG', 1756478969268462628, [-268, -263, -256, -254, -249, -244, -251, -244, -234, -246, -249, -234, -237, -244, -237, -234, -244, -249, -244, -239, -242, -254, -256, -249, -251, -251, -239, -232, -242, -246, -246, -246, -249, -244, -232, -234, -251, -242, -213, -198, -208, -206, -206, -222, -237, -237, -232, -237, -237, -244, -297, -316, -47, 524, 965, 678, -349, -867, -388, -141, -352, -311, -203, -263, -273, -213, -208, -210, -182, -177, -182, -172, -158])
('ECG', 1756478969830182022, [-150, -141, -136, -131, -134, -150, -165, -177, -189, -194, -203, -215, -218, -227, -249, -254, -258, -273, -266, -254, -256, -261, -256, -256, -251, -239, -232, -239, -244, -242, -242, -239, -232, -237, -251, -251, -249, -258, -261, -249, -249, -261, -258, -244, -242, -254, -256, -249, -249, -246, -244, -249, -251, -244, -244, -246, -232, -213, -206, -203, -206, -218, -230, -234, -237, -239, -242, -242, -263, -328, -321, -9, 572])
('ECG', 1756478970391870898, [999, 627, -476, -917, -383, -184, -364, -285, -198, -254, -239, -189, -196, -198, -174, -167, -160, -141, -134, -131, -117, -115, -124, -127, -127, -139, -162, -194, -203, -196, -201, -222, -232, -234, -244, -261, -268, -270, -273, -282, -278, -258, -251, -261, -263, -256, -249, -242, -239, -242, -246, -242, -239, -246, -249, -254, -261, -256, -256, -266, -258, -244, -251, -258, -258, -266, -270, -273, -273, -258, -249, -256, -254])
('ECG', 1756478970953590292, [-234, -218, -213, -218, -213, -222, -246, -249, -237, -237, -239, -242, -273, -345, -285, 143, 786, 1080, 361, -810, -869, -263, -256, -373, -227, -201, -261, -230, -201, -210, -198, -177, -170, -158, -143, -136, -136, -129, -122, -127, -136, -146, -160, -182, -196, -208, -218, -227, -242, -251, -256, -266, -275, -280, -285, -285, -282, -280, -278, -280, -273, -261, -261, -268, -261, -251, -251, -254, -254, -258, -256, -249, -256])
('ECG', 1756478971515279170, [-263, -263, -266, -268, -270, -273, -275, -270, -258, -261, -268, -263, -258, -268, -275, -263, -256, -266, -268, -261, -258, -256, -234, -213, -208, -203, -206, -237, -261, -256, -242, -242, -251, -278, -342, -321, 45, 702, 1171, 762, -448, -908, -333, -170, -409, -321, -215, -285, -275, -222, -234, -237, -210, -194, -184, -167, -165, -160, -146, -141, -146, -150, -158, -162, -174, -194, -208, -208, -213, -237, -251, -254, -268])
('ECG', 1756478972076988392, [-280, -275, -275, -278, -275, -270, -270, -268, -266, -261, -256, -256, -261, -258, -246, -244, -239, -230, -234, -246, -244, -242, -254, -258, -254, -256, -256, -254, -254, -256, -256, -256, -254, -254, -254, -251, -249, -244, -239, -242, -244, -239, -239, -244, -249, -249, -237, -222, -210, -203, -201, -203, -215, -237, -244, -239, -230, -227, -244, -299, -352, -189, 345, 958, 1059, 182, -795, -611, -139, -299, -390, -239, -244])
('ECG', 1756478972638687440, [-294, -246, -222, -232, -213, -189, -184, -170, -153, -153, -150, -139, -136, -146, -150, -160, -172, -184, -196, -213, -220, -218, -230, -249, -256, -256, -268, -280, -278, -273, -273, -268, -266, -263, -261, -251, -242, -242, -234, -230, -234, -242, -242, -242, -237, -239, -246, -249, -244, -244, -246, -244, -244, -251, -254, -251, -246, -244, -239, -239, -237, -237, -242, -239, -227, -222, -234, -237, -227, -222, -227, -230, -225])
('ECG', 1756478973200376316, [-225, -225, -225, -227, -225, -225, -222, -213, -215, -227, -232, -230, -227, -220, -201, -196, -198, -194, -201, -225, -237, -234, -230, -230, -237, -280, -333, -167, 352, 934, 1018, 160, -776, -579, -129, -294, -383, -234, -244, -297, -246, -210, -213, -203, -191, -184, -172, -162, -165, -155, -143, -146, -153, -160, -165, -172, -186, -203, -215, -220, -218, -218, -230, -237, -244, -251, -251, -249, -249, -246, -246, -246, -237])
('ECG', 1756478973762095710, [-230, -230, -230, -227, -222, -210, -213, -220, -213, -210, -222, -222, -218, -225, -230, -225, -227, -234, -232, -225, -230, -234, -232, -230, -227, -232, -239, -237, -234, -230, -227, -230, -230, -227, -220, -218, -220, -220, -225, -230, -220, -215, -222, -218, -213, -218, -225, -222, -220, -218, -208, -191, -186, -186, -177, -182, -206, -225, -220, -210, -215, -227, -254, -311, -261, 124, 716, 1030, 472, -599, -769, -222, -189])
('ECG', 1756478974323784586, [-361, -246, -203, -275, -234, -182, -201, -198, -172, -165, -153, -136, -136, -136, -124, -115, -110, -112, -124, -148, -172, -184, -186, -191, -191, -201, -220, -220, -208, -213, -232, -237, -237, -237, -232, -227, -230, -230, -220, -218, -220, -210, -201, -210, -215, -213, -210, -210, -218, -222, -230, -237, -232, -230, -239, -242, -239, -244, -244, -232, -230, -239, -242, -239, -239, -237, -239, -239, -234, -237, -242, -237, -234])
('ECG', 1756478974885498896, [-239, -232, -218, -222, -237, -237, -225, -230, -232, -208, -191, -206, -210, -196, -203, -227, -239, -239, -239, -230, -227, -261, -328, -278, 119, 735, 1042, 417, -692, -819, -254, -225, -366, -237, -196, -263, -237, -201, -208, -194, -167, -165, -162, -148, -136, -134, -129, -119, -124, -139, -153, -162, -174, -194, -206, -215, -220, -222, -234, -246, -246, -246, -256, -261, -256, -256, -256, -251, -246, -246, -244, -242, -237])
('ECG', 1756478975447192858, [-237, -237, -234, -232, -232, -237, -244, -246, -242, -242, -246, -249, -249, -246, -239, -239, -246, -251, -249, -246, -244, -246, -251, -249, -244, -246, -246, -237, -234, -239, -242, -242, -244, -242, -234, -232, -234, -242, -251, -242, -222, -213, -210, -206, -194, -201, -234, -254, -242, -237, -239, -242, -270, -340, -266, 172, 786, 1052, 402, -668, -747, -201, -215, -376, -254, -218, -275, -244, -210, -215, -198, -184, -182])
('ECG', 1756478976008881734, [-167, -150, -143, -143, -136, -124, -124, -134, -136, -143, -167, -184, -191, -201, -206, -213, -227, -234, -239, -251, -256, -251, -251, -256, -251, -246, -246, -246, -239, -237, -242, -234, -225, -227, -237, -237, -232, -232, -232, -237, -242, -244, -246, -249, -244, -246, -251, -242, -239, -251, -251, -244, -246, -249, -249, -244, -239, -237, -237, -237, -244, -242, -232, -237, -244, -244, -237, -218, -208, -210, -198, -182, -196])
('ECG', 1756478976570580784, [-225, -232, -232, -232, -232, -242, -273, -325, -222, 249, 860, 1032, 280, -726, -661, -148, -239, -366, -225, -210, -270, -227, -198, -210, -196, -174, -172, -160, -143, -136, -131, -124, -119, -119, -129, -141, -153, -167, -177, -191, -201, -208, -222, -234, -239, -249, -263, -268, -261, -258, -266, -266, -258, -251, -254, -251, -244, -239, -237, -242, -239, -239, -244, -237, -227, -234, -244, -239, -244, -249, -237, -239, -246])
('ECG', 1756478977132290004, [-242, -242, -249, -242, -239, -249, -239, -230, -239, -242, -232, -234, -237, -234, -234, -237, -242, -239, -225, -210, -210, -208, -194, -201, -227, -237, -237, -239, -239, -232, -249, -297, -256, 86, 632, 891, 359, -579, -721, -225, -179, -347, -249, -196, -254, -232, -198, -206, -191, -174, -170, -158, -139, -124, -110, -110, -105, -91, -93, -112, -122, -124, -136, -153, -165, -177, -191, -208, -227, -242, -254, -263, -266])
('ECG', 1756478977693978882, [-266, -263, -258, -258, -254, -242, -242, -244, -234, -230, -234, -232, -227, -232, -234, -234, -234, -237, -244, -246, -239, -239, -246, -251, -246, -242, -244, -249, -242, -242, -246, -246, -244, -246, -246, -242, -239, -239, -242, -244, -246, -246, -244, -232, -220, -213, -206, -201, -215, -234, -244, -242, -230, -230, -242, -270, -309, -179, 275, 781, 774, -26, -778, -544, -141, -275, -335, -206, -222, -263, -213, -191, -203])
('ECG', 1756478978255698276, [-186, -167, -170, -162, -139, -124, -119, -112, -105, -112, -115, -115, -134, -153, -160, -165, -177, -186, -201, -225, -239, -242, -249, -261, -261, -261, -263, -256, -244, -244, -246, -239, -232, -227, -230, -232, -232, -232, -234, -234, -232, -234, -237, -234, -237, -237, -237, -244, -244, -237, -242, -246, -242, -239, -242, -239, -239, -239, -239, -242, -239, -234, -237, -244, -242, -239, -230, -208, -203, -208, -201, -206, -232])
('ECG', 1756478978817387152, [-246, -239, -230, -227, -234, -263, -306, -232, 160, 707, 855, 186, -692, -659, -182, -210, -335, -227, -203, -254, -225, -191, -194, -186, -179, -170, -148, -139, -136, -127, -115, -112, -110, -107, -112, -134, -153, -155, -162, -174, -189, -206, -227, -239, -246, -256, -268, -273, -268, -263, -256, -251, -249, -237, -232, -237, -237, -230, -234, -237, -234, -232, -237, -239, -232, -232, -237, -239, -246, -246, -242, -244, -246])
('ECG', 1756478979379076028, [-249, -249, -246, -239, -242, -246, -251, -244, -239, -246, -244, -230, -230, -244, -232, -222, -239, -246, -239, -222, -208, -206, -203, -191, -201, -225, -232, -230, -234, -232, -227, -254, -306, -232, 153, 687, 850, 210, -673, -661, -182, -208, -337, -227, -198, -251, -222, -189, -196, -186, -165, -160, -160, -150, -134, -122, -119, -112, -105, -115, -124, -124, -139, -165, -179, -177, -182, -203, -230, -242, -239, -246, -263])
('ECG', 1756478979940795422, [-270, -268, -268, -263, -251, -246, -246, -239, -225, -222, -232, -232, -222, -222, -227, -227, -225, -230, -234, -230, -227, -232, -237, -239, -242, -234, -227, -232, -234, -234, -242, -239, -230, -232, -237, -234, -230, -230, -227, -227, -232, -237, -232, -232, -237, -230, -215, -206, -198, -191, -198, -218, -232, -237, -237, -232, -232, -249, -289, -294, -40, 491, 867, 532, -393, -788, -340, -136, -323, -294, -203, -244, -246])
('ECG', 1756478980502484298, [-201, -196, -194, -177, -174, -174, -148, -129, -129, -122, -105, -95, -98, -110, -127, -141, -150, -162, -167, -167, -179, -198, -220, -242, -258, -261, -258, -258, -263, -261, -242, -234, -239, -237, -230, -222, -218, -215, -218, -218, -213, -213, -222, -225, -218, -215, -225, -230, -227, -232, -244, -244, -237, -227, -230, -230, -225, -227, -230, -232, -242, -232, -218, -222, -230, -230, -239, -234, -208, -194, -198, -191, -172])
('ECG', 1756478981064173174, [-174, -198, -232, -246, -232, -208, -201, -222, -266, -301, -148, 330, 805, 711, -150, -838, -517, -136, -268, -287, -172, -201, -220, -177, -182, -184, -150, -139, -148, -122, -91, -98, -107, -100, -93, -91, -88, -91, -103, -122, -141, -148, -162, -184, -198, -210, -227, -246, -263, -268, -268, -275, -270, -256, -256, -256, -239, -239, -249, -237, -227, -234, -237, -234, -230, -220, -220, -234, -254, -263, -251, -237, -239])
('ECG', 1756478981625862052, [-242, -234, -237, -244, -246, -244, -246, -251, -244, -246, -263, -249, -222, -220, -232, -225, -208, -210, -225, -239, -244, -239, -230, -232, -246, -287, -357, -242, 273, 905, 1008, 88, -934, -730, -194, -280, -325, -191, -218, -256, -201, -186, -196, -184, -172, -158, -136, -129, -131, -119, -107, -110, -117, -115, -122, -143, -167, -172, -167, -177, -196, -215, -232, -246, -251, -256, -270, -280, -263, -246, -254, -263, -254])
('ECG', 1756478982187581446, [-244, -249, -249, -242, -244, -246, -237, -232, -239, -242, -239, -239, -232, -227, -234, -242, -242, -242, -242, -239, -239, -242, -246, -242, -239, -246, -249, -246, -237, -222, -213, -218, -206, -191, -213, -237, -237, -239, -246, -239, -230, -270, -357, -299, 124, 764, 1104, 464, -738, -893, -263, -215, -373, -237, -196, -261, -222, -189, -215, -208, -160, -139, -148, -143, -127, -119, -112, -103, -105, -115, -122, -134, -153])
('ECG', 1756478982749270322, [-165, -174, -182, -184, -201, -225, -234, -244, -263, -268, -256, -256, -266, -261, -251, -249, -251, -246, -239, -239, -242, -239, -237, -239, -242, -244, -242, -239, -242, -246, -254, -258, -256, -254, -254, -239, -234, -239, -239, -242, -244, -242, -246, -256, -251, -246, -234, -203, -191, -196, -194, -203, -234, -244, -232, -232, -237, -237, -278, -354, -246, 258, 925, 1167, 364, -795, -762, -167, -249, -402, -242, -215, -287])
('ECG', 1756478983310969372, [-249, -213, -230, -213, -186, -182, -162, -143, -148, -141, -117, -119, -124, -124, -134, -153, -167, -179, -186, -189, -201, -225, -242, -246, -258, -280, -294, -287, -278, -280, -278, -266, -263, -268, -266, -258, -254, -242, -244, -256, -249, -234, -239, -242, -232, -234, -237, -232, -239, -246, -244, -244, -251, -244, -230, -232, -242, -244, -230, -225, -230, -225, -225, -239, -232, -208, -198, -198, -194, -186, -206, -237, -242])
('ECG', 1756478983872678592, [-222, -218, -227, -234, -266, -342, -289, 139, 783, 1128, 563, -582, -800, -225, -186, -388, -273, -210, -280, -254, -203, -213, -208, -182, -177, -174, -158, -146, -146, -136, -127, -124, -122, -122, -141, -158, -165, -182, -194, -196, -210, -242, -261, -266, -273, -278, -280, -280, -270, -263, -266, -263, -258, -261, -254, -237, -234, -249, -249, -234, -232, -242, -239, -234, -246, -246, -234, -239, -251, -249, -242, -251, -256])
('ECG', 1756478984434367468, [-249, -244, -242, -246, -249, -239, -239, -249, -242, -232, -232, -234, -222, -213, -220, -230, -222, -213, -218, -220, -215, -222, -234, -225, -208, -196, -186, -182, -179, -189, -210, -225, -220, -215, -210, -213, -251, -321, -227, 232, 834, 1068, 383, -680, -699, -148, -210, -371, -222, -198, -278, -232, -191, -208, -196, -170, -162, -155, -148, -139, -119, -115, -117, -107, -105, -124, -139, -143, -160, -174, -170, -174, -189])
('ECG', 1756478984996056346, [-206, -222, -234, -242, -251, -251, -244, -246, -249, -246, -242, -239, -237, -225, -213, -218, -215, -210, -215, -220, -222, -225, -222, -220, -215, -215, -225, -234, -232, -232, -230, -227, -232, -227, -225, -230, -225, -225, -225, -220, -225, -225, -213, -213, -222, -213, -206, -210, -218, -215, -210, -213, -220, -213, -191, -172, -167, -174, -182, -198, -215, -222, -222, -218, -206, -210, -263, -335, -213, 275, 884, 1061, 234])
('ECG', 1756478985557775740, [-850, -745, -191, -263, -349, -208, -210, -249, -196, -189, -201, -165, -150, -160, -136, -110, -117, -117, -95, -88, -112, -119, -115, -131, -153, -167, -172, -170, -186, -210, -218, -222, -230, -237, -246, -256, -258, -256, -251, -246, -242, -234, -232, -237, -230, -220, -218, -218, -222, -230, -230, -225, -230, -230, -227, -234, -234, -227, -239, -256, -254, -246, -246, -242, -239, -242, -244, -246, -246, -242, -239, -249, -256])
('ECG', 1756478986119464616, [-246, -232, -218, -203, -198, -196, -198, -220, -232, -230, -230, -227, -220, -237, -309, -352, -115, 472, 1054, 980, -91, -929, -512, -105, -321, -340, -201, -246, -270, -208, -203, -218, -198, -179, -177, -170, -153, -139, -134, -129, -127, -124, -131, -148, -160, -165, -177, -182, -189, -208, -227, -237, -249, -263, -270, -266, -268, -273, -268, -256, -251, -251, -246, -242, -239, -244, -244, -232, -220, -220, -220, -222, -225])
('ECG', 1756478986681163666, [-227, -225, -225, -230, -234, -234, -234, -239, -239, -230, -227, -234, -237, -222, -210, -215, -230, -232, -227, -225, -225, -220, -218, -215, -210, -210, -220, -227, -208, -184, -189, -198, -186, -184, -213, -234, -225, -210, -220, -234, -258, -316, -287, 71, 685, 1104, 690, -452, -855, -297, -158, -385, -297, -206, -278, -258, -194, -208, -220, -191, -170, -162, -153, -136, -124, -117, -110, -105, -110, -117, -127, -143, -153])
('ECG', 1756478987242872886, [-160, -172, -186, -196, -215, -234, -244, -244, -249, -251, -244, -239, -239, -242, -242, -234, -225, -225, -225, -225, -225, -220, -220, -227, -225, -227, -230, -222, -218, -222, -222, -230, -239, -227, -222, -225, -227, -230, -227, -222, -222, -227, -230, -227, -227, -225, -220, -225, -232, -227, -220, -225, -227, -215, -210, -222, -230, -225, -218, -203, -186, -191, -189, -182, -203, -230, -230, -222, -222, -222, -244, -309, -323])
('ECG', 1756478987804561762, [-55, 512, 1016, 848, -172, -829, -409, -122, -335, -318, -194, -239, -258, -208, -203, -208, -184, -172, -167, -150, -139, -141, -141, -129, -115, -119, -136, -146, -155, -170, -174, -179, -194, -215, -225, -220, -232, -254, -254, -246, -249, -246, -244, -251, -261, -254, -232, -220, -227, -222, -210, -215, -220, -210, -213, -218, -218, -220, -225, -225, -227, -232, -234, -232, -234, -239, -239, -239, -237, -237, -239, -237, -234])
('ECG', 1756478988366276072, [-239, -244, -239, -237, -234, -225, -227, -237, -230, -222, -234, -242, -220, -201, -210, -208, -191, -203, -227, -239, -237, -232, -230, -244, -297, -328, -110, 431, 937, 829, -115, -831, -474, -129, -325, -335, -198, -244, -268, -203, -201, -218, -189, -162, -148, -143, -148, -139, -122, -119, -122, -119, -119, -131, -150, -170, -179, -184, -194, -206, -215, -227, -239, -246, -246, -251, -261, -256, -244, -244, -244, -234, -230])
('ECG', 1756478988927959862, [-227, -220, -213, -210, -215, -215, -213, -222, -220, -203, -203, -222, -237, -234, -227, -227, -227, -225, -220, -218, -222, -234, -239, -237, -237, -232, -222, -218, -225, -227, -227, -227, -218, -208, -203, -194, -186, -184, -174, -172, -194, -220, -227, -218, -208, -213, -227, -263, -287, -88, 407, 834, 625, -289, -829, -417, -127, -287, -266, -165, -210, -225, -177, -172, -170, -143, -134, -139, -129, -115, -107, -95, -81])
('ECG', 1756478989489643652, [-79, -81, -69, -69, -103, -141, -150, -141, -146, -179, -206, -208, -220, -249, -254, -242, -256, -280, -270, -249, -246, -242, -237, -230, -210, -213, -227, -218, -208, -222, -227, -220, -222, -230, -227, -222, -227, -239, -242, -242, -244, -242, -237, -230, -232, -237, -237, -234, -249, -249, -225, -206, -206, -215, -208, -191, -208, -237, -234, -230, -234, -227, -237, -309, -349, -127, 440, 989, 865, -208, -982, -560, -184])
('ECG', 1756478990051347786, [-342, -294, -167, -227, -244, -182, -177, -184, -158, -141, -146, -143, -122, -107, -103, -95, -83, -86, -105, -112, -115, -136, -155, -158, -165, -182, -201, -218, -234, -249, -254, -256, -263, -266, -256, -249, -244, -242, -249, -246, -232, -222, -222, -225, -222, -225, -230, -232, -234, -239, -239, -232, -232, -232, -230, -232, -234, -237, -242, -242, -239, -244, -244, -237, -230, -215, -206, -208, -203, -213, -239, -242, -232])
('ECG', 1756478990613036662, [-234, -237, -239, -266, -335, -333, 0, 632, 1104, 692, -517, -963, -381, -184, -361, -263, -179, -234, -222, -179, -182, -179, -165, -155, -146, -136, -127, -119, -110, -98, -95, -103, -112, -119, -141, -167, -174, -174, -186, -210, -222, -234, -249, -261, -273, -275, -268, -261, -256, -258, -261, -251, -249, -251, -237, -230, -242, -246, -237, -239, -251, -254, -251, -254, -258, -258, -256, -261, -261, -254, -249, -246, -244])
('ECG', 1756478991174725538, [-254, -254, -244, -254, -263, -256, -244, -230, -218, -218, -213, -206, -225, -251, -249, -239, -244, -244, -244, -282, -359, -273, 203, 865, 1162, 448, -738, -810, -206, -234, -405, -258, -222, -282, -242, -220, -244, -218, -189, -194, -184, -160, -158, -158, -136, -117, -127, -148, -153, -158, -172, -179, -182, -201, -220, -237, -254, -263, -275, -285, -285, -289, -289, -263, -244, -251, -261, -251, -249, -263, -242, -220, -254])
('ECG', 1756478991736419502, [-258, -220, -222, -242, -230, -213, -213, -227, -230, -215, -206, -196, -165, -150, -179, -191, -196, -203, -162, -148, -203, -208, -162, -148, -131, -119, -117, -124, -127, -76, -98, -206, -220, -134, -110, -196, -278, -287, -69, 407, 944, 1140, 239, -901, -560, 23, -318, -440, -167, -196, -297, -201, -208, -251, -179, -136, -165, -167, -64, -43, -186, -141, 2, -112, -160, -38, -110, -201, -117, -103, -158, -184, -194])
('ECG', 1756478992298103292, [-174, -208, -232, -213, -213, -203, -196, -222, -234, -210, -194, -208, -222, -167, -143, -222, -234, -186, -194, -189, -222, -263, -177, -167, -285, -249, -158, -201, -210, -186, -242, -244, -184, -177, -203, -222, -208, -182, -189, -201, -172, -148, -162, -160, -155, -179, -203, -218, -208, -184, -189, -237, -316, -297, 79, 750, 1227, 759, -522, -934, -273, -124, -378, -261, -165, -263, -261, -189, -191, -194, -167, -155, -160])
('ECG', 1756478992859792168, [-158, -143, -122, -105, -107, -124, -131, -129, -139, -155, -160, -170, -218, -230, -198, -244, -313, -313, -297, -297, -292, -289, -289, -282, -287, -299, -280, -249, -251, -266, -266, -270, -268, -254, -258, -275, -282, -289, -289, -282, -285, -292, -297, -297, -285, -280, -289, -285, -297, -318, -313, -297, -287, -273, -256, -244, -242, -256, -275, -294, -301, -294, -287, -289, -304, -361, -412, -208, 354, 939, 905, -131, -1013])
('ECG', 1756478993421460700, [-639, -194, -371, -385, -234, -268, -299, -234, -220, -227, -196, -186, -201, -191, -167, -155, -148, -143, -139, -129, -134, -160, -184, -196, -201, -206, -213, -220, -234, -249, -261, -273, -285, -292, -289, -287, -282, -270, -266, -263, -254, -244, -242, -244, -244, -239, -239, -246, -249, -249, -249, -246, -251, -266, -270, -261, -256, -261, -261, -258, -256, -251, -251, -258, -266, -270, -268, -266, -254, -234, -218, -220, -222])
('ECG', 1756478993983144490, [-218, -232, -254, -249, -239, -239, -239, -251, -299, -349, -158, 402, 989, 980, -14, -910, -570, -117, -301, -340, -198, -242, -268, -206, -201, -218, -186, -165, -170, -158, -139, -134, -122, -112, -110, -107, -117, -136, -148, -155, -165, -172, -177, -189, -215, -232, -242, -246, -251, -258, -254, -244, -251, -254, -237, -232, -244, -249, -234, -222, -220, -220, -220, -215, -215, -222, -232, -237, -242, -239, -230, -232, -237])
('ECG', 1756478994544858796, [-239, -242, -239, -242, -249, -244, -237, -239, -232, -220, -227, -237, -234, -222, -220, -230, -244, -232, -210, -201, -196, -191, -189, -194, -208, -227, -234, -227, -215, -210, -234, -309, -328, -45, 548, 1066, 867, -206, -853, -393, -107, -333, -311, -189, -242, -254, -194, -191, -201, -177, -162, -160, -146, -136, -139, -134, -119, -112, -115, -122, -136, -150, -162, -174, -177, -174, -189, -215, -232, -234, -232, -234, -242])
('ECG', 1756478995106542588, [-249, -246, -239, -239, -239, -234, -222, -210, -213, -210, -208, -210, -215, -210, -201, -210, -222, -215, -210, -220, -227, -222, -213, -220, -220, -213, -218, -230, -225, -210, -210, -218, -218, -210, -215, -218, -210, -206, -208, -215, -218, -213, -201, -194, -184, -172, -162, -182, -206, -210, -208, -206, -201, -208, -242, -304, -278, 67, 687, 1126, 697, -474, -865, -285, -131, -347, -261, -167, -230, -218, -174, -177, -172])
('ECG', 1756478995668236550, [-160, -158, -141, -119, -117, -110, -100, -100, -95, -88, -93, -117, -136, -141, -148, -165, -177, -184, -203, -222, -225, -225, -234, -244, -254, -254, -242, -234, -239, -242, -230, -222, -227, -225, -220, -225, -225, -225, -227, -227, -230, -234, -244, -249, -244, -242, -244, -249, -249, -256, -256, -251, -254, -254, -249, -251, -249, -244, -249, -251, -242, -232, -218, -210, -208, -191, -189, -218, -237, -230, -215, -218, -230])
('ECG', 1756478996229910168, [-251, -306, -328, -69, 524, 1078, 913, -196, -913, -433, -107, -337, -306, -174, -232, -244, -184, -189, -198, -172, -150, -143, -139, -131, -117, -107, -112, -115, -115, -122, -134, -146, -155, -172, -184, -189, -196, -218, -234, -237, -239, -254, -266, -258, -254, -258, -254, -239, -227, -227, -230, -227, -234, -244, -237, -230, -227, -225, -230, -234, -234, -232, -230, -230, -234, -249, -254, -246, -234, -234, -239, -237, -232])
('ECG', 1756478996791614302, [-232, -234, -232, -230, -225, -218, -218, -220, -220, -220, -220, -220, -213, -191, -179, -182, -177, -186, -206, -213, -213, -210, -213, -220, -239, -301, -292, 59, 678, 1097, 695, -419, -822, -280, -136, -364, -282, -182, -242, -237, -191, -201, -203, -174, -158, -155, -153, -143, -134, -131, -124, -119, -131, -143, -141, -148, -177, -194, -194, -201, -208, -210, -230, -244, -242, -249, -258, -251, -244, -244, -242, -234, -225])
('ECG', 1756478997353303178, [-225, -232, -227, -218, -225, -227, -215, -210, -218, -222, -225, -230, -237, -237, -222, -222, -234, -230, -225, -230, -227, -220, -222, -234, -234, -220, -218, -218, -215, -218, -225, -227, -222, -220, -220, -220, -210, -198, -191, -184, -182, -196, -220, -230, -225, -218, -215, -220, -256, -309, -172, 323, 910, 1018, 189, -757, -584, -100, -239, -337, -191, -194, -251, -203, -174, -189, -172, -148, -143, -134, -124, -117, -107])
('ECG', 1756478997914992054, [-103, -107, -115, -117, -117, -131, -158, -170, -170, -177, -186, -194, -206, -218, -220, -227, -232, -232, -234, -225, -220, -225, -218, -203, -203, -206, -208, -206, -203, -203, -208, -215, -220, -215, -213, -215, -215, -218, -220, -225, -230, -222, -213, -208, -218, -227, -220, -206, -206, -206, -206, -210, -215, -213, -206, -196, -179, -174, -179, -170, -167, -194, -210, -210, -210, -208, -208, -230, -289, -285, 19, 591, 1011])
('ECG', 1756478998476650414, [656, -426, -855, -321, -134, -330, -246, -153, -210, -203, -160, -167, -167, -146, -136, -124, -117, -110, -103, -93, -79, -76, -91, -110, -127, -141, -155, -158, -158, -172, -189, -198, -210, -225, -242, -251, -246, -249, -254, -232, -208, -215, -225, -218, -213, -213, -213, -213, -213, -213, -218, -218, -218, -227, -237, -234, -230, -242, -244, -232, -230, -239, -239, -230, -222, -227, -232, -225, -222, -232, -237, -230, -220])
('ECG', 1756478999038339290, [-210, -203, -196, -186, -184, -210, -230, -225, -222, -220, -218, -237, -297, -304, -4, 596, 1052, 699, -426, -903, -347, -127, -337, -266, -167, -232, -227, -177, -182, -179, -150, -139, -131, -119, -115, -112, -105, -100, -103, -110, -117, -131, -146, -158, -165, -174, -186, -198, -215, -227, -237, -239, -244, -246, -246, -246, -242, -234, -232, -227, -222, -227, -222, -215, -218, -222, -225, -222, -230, -234, -230, -227, -234])
('ECG', 1756478999600028166, [-239, -237, -237, -237, -239, -242, -242, -242, -242, -237, -230, -220, -215, -218, -222, -225, -227, -230, -230, -220, -203, -189, -182, -167, -170, -203, -218, -206, -206, -215, -213, -232, -299, -294, 21, 615, 1044, 692, -393, -841, -309, -119, -337, -273, -172, -239, -234, -174, -182, -189, -160, -150, -150, -131, -119, -119, -112, -105, -110, -117, -122, -131, -148, -165, -172, -177, -194, -206, -208, -215, -225, -237, -251])
('ECG', 1756479000161717042, [-251, -251, -249, -242, -242, -242, -232, -220, -215, -215, -218, -210, -208, -213, -220, -220, -218, -220, -222, -220, -222, -232, -232, -225, -225, -230, -227, -222, -220, -225, -222, -215, -213, -218, -215, -213, -220, -225, -210, -194, -194, -191, -177, -174, -198, -213, -206, -203, -208, -210, -222, -261, -285, -81, 433, 881, 690, -218, -781, -385, -91, -280, -285, -170, -215, -237, -179, -165, -174, -158, -146, -146, -134])
('ECG', 1756479000723405918, [-117, -112, -112, -98, -83, -91, -103, -112, -124, -136, -143, -155, -167, -177, -194, -215, -227, -232, -239, -251, -251, -246, -251, -249, -234, -230, -234, -232, -225, -222, -222, -220, -218, -225, -237, -234, -218, -218, -234, -242, -237, -237, -239, -234, -230, -234, -244, -244, -230, -222, -230, -232, -225, -218, -220, -227, -230, -227, -215, -203, -189, -182, -186, -194, -210, -230, -237, -227, -213, -220, -242, -280, -282])
('ECG', 1756479001285094794, [-38, 491, 881, 570, -364, -788, -330, -105, -297, -266, -165, -210, -222, -184, -182, -174, -148, -136, -134, -122, -112, -105, -93, -91, -98, -103, -103, -112, -127, -129, -136, -150, -167, -179, -191, -213, -239, -254, -263, -273, -263, -251, -254, -246, -232, -234, -237, -230, -230, -232, -227, -227, -230, -227, -232, -239, -237, -230, -230, -237, -242, -237, -237, -239, -244, -244, -239, -234, -227, -232, -232, -222, -225])
('ECG', 1756479001846783672, [-234, -237, -227, -215, -222, -237, -230, -206, -189, -184, -179, -182, -201, -215, -215, -213, -218, -222, -222, -254, -313, -172, 337, 901, 908, -7, -884, -596, -129, -280, -321, -162, -186, -234, -182, -165, -177, -155, -139, -134, -119, -110, -107, -105, -105, -103, -98, -105, -119, -134, -153, -170, -172, -172, -184, -201, -218, -225, -232, -249, -251, -242, -246, -251, -246, -244, -232, -230, -239, -230, -220, -227, -232])
('ECG', 1756479002408472548, [-230, -230, -227, -232, -242, -239, -242, -246, -234, -227, -239, -242, -232, -234, -239, -234, -234, -237, -234, -230, -225, -222, -230, -232, -220, -210, -203, -194, -184, -182, -198, -218, -218, -218, -230, -225, -210, -242, -330, -261, 194, 822, 1071, 364, -735, -750, -165, -201, -352, -206, -174, -242, -196, -155, -177, -172, -146, -141, -134, -117, -110, -107, -103, -95, -91, -103, -122, -131, -146, -162, -167, -172, -186])
('ECG', 1756479002970161424, [-198, -210, -222, -234, -242, -242, -249, -258, -254, -239, -225, -222, -227, -220, -210, -210, -218, -220, -218, -215, -218, -222, -218, -220, -230, -230, -230, -234, -234, -234, -239, -239, -227, -225, -230, -232, -230, -222, -225, -225, -215, -215, -222, -218, -203, -198, -213, -220, -210, -201, -189, -179, -174, -167, -174, -198, -206, -203, -208, -208, -203, -230, -292, -270, 59, 627, 963, 520, -457, -723, -232, -134, -316])
('ECG', 1756479003531850300, [-227, -165, -237, -222, -167, -179, -172, -134, -129, -139, -127, -107, -100, -98, -91, -86, -93, -100, -107, -119, -136, -153, -162, -170, -184, -206, -218, -225, -239, -251, -256, -256, -251, -251, -251, -246, -232, -220, -220, -222, -220, -215, -206, -203, -210, -218, -218, -218, -225, -227, -222, -227, -239, -237, -230, -230, -232, -232, -234, -232, -225, -218, -215, -220, -222, -213, -210, -218, -218, -208, -208, -218, -215])
('ECG', 1756479004093539176, [-208, -206, -210, -210, -206, -213, -230, -220, -189, -184, -198, -191, -172, -177, -203, -215, -210, -206, -208, -213, -234, -301, -297, 31, 630, 1049, 683, -388, -805, -280, -117, -340, -275, -189, -258, -244, -184, -191, -194, -167, -162, -165, -146, -129, -129, -127, -119, -119, -119, -124, -143, -160, -167, -182, -191, -194, -201, -213, -225, -234, -237, -237, -244, -249, -244, -244, -239, -227, -232, -239, -230, -220, -227])
('ECG', 1756479004655228052, [-232, -225, -218, -222, -220, -208, -198, -203, -215, -222, -215, -213, -220, -220, -213, -215, -218, -218, -220, -222, -218, -215, -218, -215, -208, -208, -215, -210, -203, -206, -206, -206, -208, -206, -203, -201, -201, -201, -203, -201, -198, -196, -201, -206, -203, -203, -206, -198, -194, -198, -203, -201, -196, -201, -208, -208, -203, -206, -203, -196, -191, -196, -198, -182, -172, -172, -167, -182, -203, -206, -213, -213, -203])
('ECG', 1756479005216916930, [-210, -234, -289, -292, -4, 575, 1040, 790, -244, -795, -333, -105, -337, -299, -174, -230, -242, -189, -191, -201, -179, -162, -146, -131, -136, -134, -119, -110, -105, -107, -122, -136, -150, -162, -172, -184, -189, -191, -194, -191, -194, -206, -213, -215, -220, -213, -208, -220, -222, -210, -206, -208, -203, -194, -198, -208, -208, -201, -206, -215, -210, -206, -215, -220, -213, -213, -225, -222, -215, -225, -230, -227, -222])
('ECG', 1756479005778605806, [-222, -227, -232, -227, -218, -220, -220, -210, -210, -218, -220, -208, -203, -213, -210, -203, -203, -206, -203, -201, -206, -206, -201, -206, -203, -198, -198, -198, -198, -203, -210, -210, -196, -179, -177, -177, -170, -177, -196, -210, -215, -215, -210, -210, -222, -268, -263, 2, 534, 913, 587, -345, -733, -287, -105, -292, -256, -170, -213, -213, -179, -177, -165, -148, -146, -134, -115, -107, -107, -100, -95, -98, -98])
('ECG', 1756479006340294682, [-98, -105, -122, -146, -160, -165, -177, -189, -194, -196, -208, -222, -227, -230, -237, -239, -239, -237, -232, -230, -230, -225, -220, -218, -215, -210, -213, -210, -210, -218, -220, -215, -220, -227, -234, -237, -230, -227, -232, -232, -232, -232, -230, -225, -225, -230, -227, -215, -210, -220, -222, -215, -215, -230, -232, -213, -203, -215, -222, -215, -213, -215, -210, -206, -206, -203, -196, -189, -194, -198, -194, -186, -184])
('ECG', 1756479006901983558, [-182, -167, -158, -167, -182, -196, -208, -206, -201, -203, -218, -268, -230, 119, 654, 886, 352, -560, -675, -182, -139, -299, -215, -172, -218, -189, -160, -170, -162, -141, -134, -127, -110, -95, -88, -83, -71, -67, -81, -88, -91, -110, -131, -141, -146, -148, -165, -194, -218, -225, -227, -232, -242, -249, -251, -251, -242, -232, -234, -234, -213, -206, -222, -225, -213, -210, -215, -210, -206, -215, -225, -230, -225])
('ECG', 1756479007463647004, [-227, -237, -234, -225, -225, -225, -218, -220, -230, -234, -232, -222, -227, -230, -218, -210, -220, -222, -210, -206, -213, -213, -210, -210, -203, -198, -194, -182, -174, -182, -179, -172, -186, -208, -218, -213, -201, -201, -218, -278, -337, -158, 393, 961, 917, -69, -915, -579, -155, -299, -292, -158, -206, -234, -174, -167, -177, -155, -143, -139, -122, -107, -105, -107, -95, -88, -95, -110, -119, -131, -150, -172, -179])
('ECG', 1756479008025330794, [-182, -201, -222, -232, -234, -239, -254, -258, -251, -256, -251, -234, -232, -239, -232, -218, -218, -222, -222, -220, -220, -222, -227, -222, -218, -222, -232, -227, -225, -234, -242, -237, -234, -239, -237, -230, -230, -234, -230, -227, -237, -242, -222, -213, -227, -230, -215, -210, -218, -215, -196, -179, -194, -201, -174, -167, -198, -218, -208, -201, -206, -215, -244, -294, -237, 131, 687, 927, 354, -599, -692, -184, -170])
('ECG', 1756479008587019670, [-330, -220, -174, -239, -220, -177, -179, -170, -148, -139, -127, -115, -105, -95, -86, -79, -71, -76, -91, -95, -100, -117, -139, -155, -174, -196, -220, -234, -249, -258, -263, -266, -266, -270, -273, -263, -244, -237, -242, -237, -225, -225, -230, -230, -222, -220, -218, -215, -220, -232, -239, -244, -239, -234, -237, -242, -234, -234, -242, -242, -232, -239, -256, -246, -232, -242, -246, -234, -234, -244, -230, -213, -213])
('ECG', 1756479009148708546, [-208, -194, -184, -201, -234, -246, -234, -220, -222, -230, -244, -292, -232, 153, 709, 908, 294, -625, -666, -184, -189, -321, -213, -186, -242, -213, -177, -177, -155, -131, -127, -110, -98, -93, -83, -71, -64, -59, -52, -57, -79, -100, -112, -124, -139, -155, -182, -208, -222, -234, -246, -244, -249, -266, -266, -256, -256, -251, -234, -232, -232, -220, -210, -210, -215, -215, -220, -218, -210, -210, -218, -225, -225])
('ECG', 1756479009710397422, [-227, -242, -244, -234, -227, -227, -230, -230, -225, -220, -225, -225, -215, -215, -222, -225, -218, -222, -232, -218, -184, -172, -179, -172, -162, -182, -208, -210, -210, -218, -213, -206, -232, -292, -251, 91, 639, 932, 426, -572, -776, -246, -150, -311, -225, -167, -215, -191, -158, -170, -148, -124, -127, -107, -88, -88, -83, -69, -59, -55, -50, -47, -62, -81, -95, -110, -127, -141, -162, -196, -220, -227, -234])
('ECG', 1756479010272065954, [-239, -237, -239, -251, -251, -242, -237, -234, -230, -220, -210, -206, -198, -182, -179, -191, -196, -196, -206, -210, -210, -210, -210, -215, -218, -215, -218, -222, -222, -220, -225, -222, -215, -218, -220, -215, -218, -227, -225, -208, -196, -201, -198, -177, -177, -208, -227, -220, -215, -222, -225, -232, -297, -337, -74, 534, 1059, 841, -280, -965, -476, -143, -335, -289, -170, -232, -239, -179, -184, -194, -167, -150, -153])
('ECG', 1756479010833749744, [-143, -124, -112, -105, -98, -88, -83, -95, -115, -134, -150, -158, -165, -179, -198, -210, -218, -227, -242, -254, -256, -261, -270, -258, -237, -242, -251, -234, -225, -225, -218, -210, -213, -213, -220, -227, -215, -203, -208, -215, -213, -213, -222, -220, -213, -218, -222, -220, -225, -227, -222, -220, -225, -218, -206, -210, -218, -215, -213, -215, -210, -206, -210, -213, -208, -206, -203, -203, -203, -203, -213, -213, -194])
('ECG', 1756479011395464050, [-186, -186, -184, -182, -174, -182, -203, -210, -206, -203, -203, -208, -244, -299, -198, 251, 838, 1020, 330, -627, -615, -139, -206, -345, -220, -191, -244, -215, -182, -186, -172, -150, -141, -127, -117, -119, -112, -93, -83, -86, -86, -86, -103, -122, -124, -134, -153, -165, -184, -203, -222, -239, -249, -251, -258, -263, -254, -246, -246, -246, -242, -234, -232, -227, -210, -203, -206, -206, -203, -203, -206, -201, -196])
('ECG', 1756479011957132583, [-201, -210, -213, -208, -206, -210, -215, -213, -208, -208, -208, -210, -210, -215, -225, -215, -198, -203, -213, -206, -203, -206, -201, -201, -203, -203, -203, -203, -201, -196, -198, -206, -206, -194, -191, -201, -208, -206, -201, -196, -179, -167, -170, -172, -165, -172, -186, -196, -203, -203, -196, -198, -234, -287, -194, 234, 812, 1025, 381, -587, -620, -139, -191, -340, -220, -191, -244, -203, -170, -182, -170, -148, -141])
('ECG', 1756479012518811286, [-131, -115, -105, -103, -91, -74, -71, -76, -79, -83, -100, -119, -127, -134, -148, -165, -174, -191, -213, -220, -220, -225, -230, -234, -230, -222, -222, -215, -206, -210, -210, -206, -198, -196, -194, -194, -196, -198, -196, -191, -196, -198, -198, -206, -206, -203, -210, -215, -203, -198, -203, -208, -208, -210, -210, -208, -206, -203, -201, -198, -198, -203, -201, -196, -206, -215, -210, -198, -196, -198, -198, -196, -196])
('ECG', 1756479013080500162, [-198, -194, -198, -213, -208, -184, -177, -184, -172, -160, -177, -203, -213, -206, -198, -196, -213, -261, -292, -122, 371, 898, 896, 52, -747, -493, -76, -246, -321, -184, -198, -239, -189, -172, -177, -155, -139, -129, -110, -100, -95, -76, -52, -45, -55, -55, -57, -71, -86, -91, -100, -115, -129, -158, -184, -198, -218, -234, -239, -249, -258, -246, -230, -232, -230, -215, -213, -213, -208, -206, -203, -198, -201])
('ECG', 1756479013642168694, [-208, -206, -201, -198, -206, -215, -213, -201, -208, -218, -215, -215, -220, -220, -222, -220, -210, -213, -225, -220, -218, -215, -210, -213, -215, -215, -213, -213, -213, -206, -203, -208, -208, -206, -201, -196, -198, -198, -196, -203, -206, -196, -186, -184, -186, -191, -191, -196, -198, -194, -189, -177, -167, -165, -158, -162, -186, -198, -196, -191, -186, -184, -206, -268, -289, -21, 568, 1080, 877, -191, -846, -388, -93])
('ECG', 1756479014203847396, [-309, -287, -167, -218, -230, -177, -177, -179, -148, -143, -146, -122, -107, -105, -98, -93, -86, -81, -83, -100, -117, -124, -143, -165, -167, -174, -191, -194, -196, -210, -215, -218, -225, -225, -222, -227, -227, -222, -220, -213, -208, -210, -208, -198, -194, -203, -208, -203, -196, -206, -215, -208, -208, -215, -213, -213, -222, -218, -215, -222, -218, -213, -213, -213, -215, -213, -210, -218, -220, -213, -210, -210, -208])
('ECG', 1756479014765536272, [-206, -206, -206, -191, -189, -196, -191, -182, -184, -186, -184, -184, -184, -182, -177, -179, -184, -189, -196, -189, -160, -148, -160, -153, -139, -150, -182, -196, -196, -191, -186, -191, -220, -273, -208, 186, 745, 970, 395, -541, -635, -153, -158, -318, -218, -172, -227, -203, -162, -170, -165, -143, -134, -124, -112, -112, -103, -83, -74, -67, -59, -64, -83, -98, -107, -124, -139, -146, -162, -191, -208, -215, -230])
('ECG', 1756479015327194632, [-242, -244, -246, -251, -244, -232, -232, -237, -227, -218, -213, -213, -213, -203, -198, -206, -208, -203, -196, -198, -206, -198, -194, -206, -213, -208, -203, -208, -206, -198, -196, -210, -227, -220, -206, -213, -222, -208, -203, -218, -213, -198, -198, -201, -206, -210, -213, -218, -220, -213, -203, -206, -215, -206, -194, -191, -182, -182, -194, -186, -196, -225, -225, -218, -234, -237, -220, -249, -313, -287, 26, 565, 857])
('ECG', 1756479015888883508, [349, -627, -807, -294, -210, -347, -254, -215, -249, -213, -191, -182, -155, -153, -150, -134, -124, -119, -95, -71, -64, -57, -52, -55, -74, -103, -115, -110, -115, -134, -165, -210, -246, -254, -242, -244, -273, -282, -275, -285, -285, -249, -232, -244, -242, -244, -258, -254, -222, -206, -218, -220, -227, -237, -213, -210, -239, -237, -227, -242, -246, -242, -232, -232, -251, -254, -227, -225, -232, -230, -249, -258, -220])
('ECG', 1756479016450557126, [-186, -186, -198, -189, -184, -215, -244, -227, -196, -194, -208, -222, -256, -304, -213, 234, 884, 1104, 268, -857, -805, -242, -258, -301, -141, -143, -196, -160, -139, -143, -134, -119, -95, -83, -83, -59, -38, -47, -50, -43, -38, -40, -55, -76, -91, -107, -124, -148, -182, -208, -230, -244, -254, -270, -278, -270, -273, -268, -261, -258, -249, -237, -230, -220, -218, -225, -227, -220, -210, -210, -218, -220, -218])
('ECG', 1756479017012230742, [-220, -222, -227, -244, -249, -244, -234, -227, -242, -251, -246, -249, -258, -232, -194, -201, -215, -194, -213, -273, -261, -198, -203, -244, -232, -242, -328, -280, 141, 788, 1159, 541, -709, -932, -313, -227, -349, -203, -174, -242, -194, -155, -179, -174, -148, -136, -112, -88, -86, -83, -64, -50, -50, -57, -69, -71, -71, -93, -105, -107, -153, -206, -210, -218, -242, -242, -239, -258, -280, -299, -285, -246, -249])
('ECG', 1756479017573889100, [-278, -266, -239, -234, -237, -242, -239, -225, -210, -201, -206, -230, -242, -232, -225, -227, -218, -218, -239, -254, -254, -239, -222, -230, -237, -239, -237, -203, -170, -203, -246, -249, -242, -234, -222, -218, -230, -285, -323, -100, 476, 1092, 1066, -55, -999, -568, -88, -297, -306, -143, -201, -237, -170, -155, -160, -139, -129, -122, -100, -86, -69, -47, -43, -47, -43, -31, -33, -52, -67, -76, -100, -124, -148])
