('ECG', 1740337453944983000, [-248, -358, 1218, 2567, 2726, 2926, 3309, 3329, 3276, 3324, 3276, 3174, 3119, 3039, 2921, 2820, 2729, 2620, 2512, 2411, 2312, 2208, 2105, 2001, 1893, 1782, 1671, 1560, 1457, 1351, 1242, 1136, 1035, 939, 845, 753, 664, 582, 508, 436, 366, 296, 231, 166, 101, 40, -21, -84, -144, -209, -272, -332, -390, -450, -510, -573, -633, -688, -744, -806, -867, -922, -975, -1030, -1081, -1132, -1185, -1235, -1283, -1327, -1373, -1423, -1471])
('ECG', 1740337454506824466, [-1515, -1558, -1601, -1642, -1681, -1722, -1763, -1801, -1830, -1857, -1888, -1924, -1951, -1982, -2028, -2076, -2119, -2155, -2182, -2206, -2235, -2264, -2319, -2411, -2394, -2081, -1558, -1199, -1498, -2416, -2880, -2577, -2461, -2644, -2618, -2550, -2613, -2632, -2601, -2611, -2625, -2618, -2616, -2625, -2625, -2623, -2620, -2616, -2616, -2618, -2613, -2613, -2623, -2625, -2632, -2644, -2661, -2673, -2690, -2712, -2729, -2741, -2753, -2762, -2770, -2775, -2770, -2767, -2765, -2758, -2748, -2741, -2736])
('ECG', 1740337455068635414, [-2724, -2714, -2709, -2702, -2690, -2681, -2678, -2681, -2669, -2654, -2652, -2649, -2632, -2623, -2620, -2611, -2599, -2591, -2589, -2579, -2572, -2567, -2553, -2536, -2529, -2519, -2505, -2495, -2483, -2471, -2461, -2452, -2437, -2425, -2416, -2401, -2391, -2382, -2365, -2341, -2319, -2310, -2302, -2286, -2273, -2281, -2288, -2281, -2264, -2249, -2237, -2225, -2230, -2276, -2288, -2054, -1556, -1071, -1059, -1782, -2471, -2334, -2049, -2163, -2196, -2083, -2083, -2098, -2045, -2021, -2021, -1989, -1965])
('ECG', 1740337455630466706, [-1953, -1934, -1910, -1888, -1869, -1850, -1830, -1811, -1799, -1782, -1768, -1763, -1765, -1763, -1763, -1765, -1765, -1770, -1772, -1770, -1772, -1770, -1763, -1756, -1748, -1729, -1715, -1705, -1695, -1678, -1662, -1650, -1635, -1625, -1616, -1606, -1592, -1580, -1572, -1565, -1553, -1546, -1539, -1532, -1519, -1507, -1503, -1500, -1493, -1481, -1474, -1469, -1459, -1450, -1442, -1433, -1423, -1413, -1409, -1401, -1392, -1382, -1375, -1365, -1356, -1351, -1346, -1334, -1324, -1317, -1300, -1276, -1264])
('ECG', 1740337456192287828, [-1264, -1255, -1242, -1250, -1262, -1264, -1259, -1250, -1235, -1230, -1235, -1259, -1305, -1240, -886, -356, -19, -346, -1211, -1568, -1240, -1141, -1288, -1226, -1151, -1189, -1175, -1129, -1129, -1120, -1091, -1079, -1076, -1057, -1035, -1023, -1011, -994, -985, -975, -965, -956, -953, -958, -961, -965, -973, -982, -992, -999, -1009, -1018, -1028, -1030, -1023, -1018, -1023, -1016, -1004, -992, -980, -970, -968, -965, -958, -944, -937, -937, -937, -927, -915, -910, -910])
('ECG', 1740337456754098776, [-903, -900, -900, -903, -896, -893, -893, -898, -893, -884, -879, -879, -874, -869, -864, -864, -862, -855, -847, -840, -835, -833, -828, -826, -826, -821, -806, -792, -780, -773, -763, -758, -773, -794, -802, -794, -782, -780, -780, -785, -823, -884, -782, -368, 178, 443, -24, -941, -1180, -797, -753, -891, -804, -751, -797, -773, -732, -737, -734, -708, -698, -691, -676, -664, -657, -643, -628, -614, -607, -602, -599, -602, -611])
('ECG', 1740337457315940244, [-621, -628, -635, -652, -674, -681, -691, -705, -713, -713, -715, -717, -713, -705, -700, -698, -691, -681, -672, -664, -655, -650, -645, -643, -638, -635, -631, -628, -626, -621, -623, -626, -623, -621, -619, -619, -614, -614, -614, -611, -607, -604, -602, -599, -597, -594, -592, -587, -585, -580, -575, -575, -575, -568, -556, -541, -537, -541, -532, -525, -539, -556, -563, -561, -554, -551, -551, -558, -604, -657, -520, -67, 476])
('ECG', 1740337457877751192, [662, 69, -802, -884, -525, -563, -676, -578, -551, -597, -563, -532, -544, -532, -510, -501, -493, -479, -467, -457, -445, -438, -431, -423, -416, -416, -419, -426, -436, -448, -462, -474, -488, -501, -515, -527, -537, -541, -541, -541, -541, -537, -529, -525, -520, -513, -510, -508, -501, -498, -496, -493, -491, -488, -484, -486, -488, -486, -484, -486, -486, -488, -491, -491, -486, -486, -488, -488, -486, -484, -484, -484, -481])
('ECG', 1740337458439562140, [-479, -479, -479, -476, -474, -474, -474, -469, -467, -467, -467, -464, -460, -452, -438, -431, -436, -431, -428, -445, -460, -467, -467, -462, -460, -462, -469, -505, -561, -464, -74, 452, 720, 277, -590, -821, -481, -460, -599, -522, -469, -515, -498, -464, -469, -462, -440, -436, -431, -416, -407, -399, -390, -378, -368, -363, -358, -358, -358, -363, -373, -385, -395, -407, -421, -436, -445, -455, -464, -472, -476, -476, -474])
('ECG', 1740337459001393432, [-469, -462, -460, -455, -448, -445, -443, -440, -438, -433, -433, -433, -433, -431, -431, -431, -428, -428, -431, -431, -431, -433, -436, -436, -436, -433, -433, -431, -431, -431, -431, -426, -426, -426, -426, -423, -423, -421, -421, -419, -416, -416, -419, -416, -416, -414, -409, -409, -409, -411, -409, -395, -383, -378, -380, -378, -373, -383, -402, -414, -411, -404, -402, -402, -402, -431, -488, -467, -180, 322, 725, 551, -272])
('ECG', 1740337459563214554, [-797, -544, -368, -517, -503, -414, -448, -457, -419, -414, -414, -395, -385, -380, -368, -356, -349, -339, -332, -327, -322, -315, -315, -317, -322, -330, -339, -346, -358, -370, -385, -395, -407, -414, -423, -431, -433, -431, -428, -426, -421, -416, -411, -407, -407, -404, -399, -399, -395, -392, -392, -390, -387, -392, -392, -392, -395, -402, -402, -397, -399, -402, -404, -404, -399, -395, -395, -399, -404, -402, -402, -404, -402])
('ECG', 1740337460125025502, [-399, -397, -397, -397, -395, -392, -387, -387, -392, -395, -387, -385, -390, -380, -361, -361, -368, -358, -358, -378, -395, -404, -402, -395, -392, -395, -402, -450, -501, -354, 81, 582, 739, 161, -669, -732, -392, -438, -529, -426, -407, -445, -414, -390, -399, -387, -366, -358, -354, -342, -330, -327, -320, -303, -293, -293, -291, -291, -293, -301, -310, -322, -334, -344, -358, -375, -392, -402, -409, -414, -421, -428, -426])
('ECG', 1740337460686866970, [-419, -416, -411, -407, -402, -397, -395, -390, -387, -387, -385, -380, -378, -373, -370, -373, -378, -380, -383, -383, -387, -387, -385, -385, -390, -392, -390, -385, -383, -385, -387, -387, -385, -383, -383, -380, -378, -380, -378, -373, -375, -380, -375, -368, -368, -368, -366, -368, -366, -349, -339, -344, -339, -334, -349, -368, -380, -380, -373, -370, -373, -378, -414, -484, -402, 0, 549, 838, 407, -513, -790, -426, -375])
('ECG', 1740337461248677918, [-517, -433, -375, -423, -409, -373, -378, -370, -349, -339, -334, -325, -313, -303, -291, -279, -267, -257, -252, -252, -257, -262, -272, -281, -291, -305, -322, -342, -358, -373, -383, -392, -395, -395, -395, -397, -392, -385, -380, -375, -370, -363, -358, -356, -351, -346, -342, -339, -339, -339, -337, -334, -337, -339, -339, -339, -342, -346, -346, -346, -344, -344, -344, -342, -339, -339, -339, -339, -334, -334, -334, -332, -332])
('ECG', 1740337461810488866, [-332, -330, -330, -327, -327, -325, -325, -320, -313, -301, -298, -301, -293, -293, -310, -325, -334, -334, -330, -330, -330, -342, -395, -440, -277, 190, 710, 845, 204, -628, -650, -317, -387, -472, -366, -356, -397, -363, -342, -351, -337, -317, -315, -305, -293, -284, -274, -264, -255, -245, -238, -233, -231, -233, -243, -255, -267, -281, -301, -317, -334, -346, -361, -370, -378, -380, -380, -380, -375, -373, -368, -361, -358])
('ECG', 1740337462372299814, [-358, -354, -349, -346, -344, -342, -339, -337, -334, -332, -332, -332, -332, -334, -334, -334, -337, -339, -339, -337, -339, -339, -339, -339, -339, -337, -337, -334, -334, -334, -334, -332, -332, -332, -330, -330, -332, -330, -327, -327, -325, -313, -301, -296, -301, -296, -293, -310, -327, -334, -334, -330, -327, -330, -339, -380, -436, -330, 77, 607, 855, 378, -488, -688, -354, -346, -476, -392, -351, -397, -373, -342, -349])
('ECG', 1740337462934136192, [-342, -320, -315, -310, -296, -286, -277, -267, -255, -248, -240, -236, -233, -233, -240, -250, -264, -279, -291, -308, -322, -332, -346, -358, -366, -368, -368, -368, -363, -358, -356, -351, -349, -344, -342, -339, -337, -334, -330, -327, -330, -330, -330, -330, -332, -337, -334, -334, -337, -337, -337, -337, -337, -337, -337, -337, -334, -337, -342, -339, -339, -339, -337, -332, -332, -334, -332, -330, -334, -332, -327, -327, -327])
('ECG', 1740337463495952228, [-330, -332, -330, -330, -330, -315, -301, -298, -303, -298, -298, -315, -327, -332, -342, -342, -332, -332, -339, -370, -428, -366, -14, 510, 845, 517, -363, -741, -419, -325, -476, -423, -354, -395, -387, -351, -356, -349, -325, -317, -315, -301, -291, -284, -269, -262, -257, -250, -243, -240, -245, -252, -257, -267, -281, -296, -310, -325, -339, -351, -361, -370, -380, -380, -383, -380, -375, -368, -361, -358, -358, -356, -349])
('ECG', 1740337464057763178, [-342, -339, -339, -337, -332, -334, -332, -330, -337, -339, -334, -332, -337, -339, -342, -344, -346, -349, -346, -339, -342, -346, -342, -339, -344, -342, -342, -339, -337, -337, -337, -334, -334, -334, -330, -327, -330, -334, -339, -337, -322, -308, -301, -303, -296, -291, -308, -327, -339, -342, -337, -332, -334, -339, -375, -440, -358, 43, 597, 900, 484, -452, -770, -402, -330, -481, -409, -346, -392, -378, -337, -342, -339])
('ECG', 1740337464619574126, [-320, -310, -303, -291, -274, -264, -257, -252, -243, -228, -224, -226, -226, -231, -243, -255, -269, -286, -303, -317, -332, -344, -358, -363, -370, -375, -375, -370, -366, -358, -354, -346, -346, -344, -334, -327, -322, -322, -320, -317, -313, -310, -313, -315, -313, -313, -315, -315, -317, -315, -317, -320, -320, -317, -317, -320, -317, -315, -315, -313, -310, -310, -313, -310, -305, -301, -303, -303, -303, -305, -301, -298, -298])
('ECG', 1740337465181400332, [-296, -284, -272, -267, -272, -267, -262, -279, -296, -305, -310, -305, -298, -298, -308, -344, -407, -327, 57, 604, 925, 532, -383, -710, -358, -293, -452, -383, -317, -366, -351, -313, -317, -313, -293, -286, -281, -267, -255, -245, -236, -228, -216, -207, -199, -199, -202, -207, -214, -228, -243, -255, -272, -293, -310, -325, -337, -344, -349, -351, -349, -344, -339, -337, -332, -327, -322, -317, -315, -310, -308, -305, -298])
('ECG', 1740337465743226540, [-296, -296, -296, -298, -296, -298, -301, -303, -303, -303, -303, -305, -308, -308, -308, -310, -310, -308, -308, -305, -305, -303, -303, -305, -303, -303, -301, -301, -303, -301, -298, -298, -298, -296, -296, -296, -293, -281, -269, -274, -277, -267, -267, -286, -298, -305, -308, -303, -301, -303, -315, -363, -402, -228, 231, 734, 847, 207, -597, -594, -277, -361, -448, -344, -334, -373, -337, -313, -317, -308, -293, -289, -277])
('ECG', 1740337466305037488, [-264, -257, -248, -233, -224, -219, -211, -204, -204, -207, -211, -216, -228, -252, -272, -281, -291, -305, -330, -366, -380, -354, -327, -337, -349, -342, -332, -332, -339, -349, -361, -361, -346, -334, -320, -305, -322, -332, -320, -322, -337, -346, -356, -378, -378, -342, -305, -308, -332, -346, -339, -327, -339, -378, -409, -390, -342, -330, -361, -375, -327, -257, -284, -366, -370, -339, -342, -356, -356, -337, -327, -332, -310])
('ECG', 1740337466866848436, [-286, -310, -322, -301, -301, -310, -334, -366, -332, -284, -320, -349, -310, -332, -448, -404, 65, 737, 1014, 484, -428, -684, -354, -351, -525, -445, -361, -390, -375, -327, -293, -281, -330, -387, -368, -332, -298, -226, -192, -216, -240, -284, -315, -267, -199, -226, -327, -322, -238, -298, -397, -351, -322, -390, -423, -450, -505, -481, -414, -436, -517, -505, -426, -436, -452, -411, -440, -448, -402, -496, -520, -356, -305])
('ECG', 1740337467428659386, [-260, -204, -363, -411, -228, -187, -370, -462, -257, -190, -385, -330, -233, -383, -399, -257, -298, -322, -130, -139, -274, -149, -72, -257, -192, 33, -84, -154, 36, 67, -33, -43, -50, -28, 31, -154, -284, 38, 31, -457, -419, 38, 296, 568, 937, 638, -349, -732, -496, -486, -467, -450, -539, -541, -534, -397, -289, -334, -269, -257, -363, -334, -257, -387, -575, -370, -26, -26, -197, -293, -209, -178, -339])
('ECG', 1740337467990470334, [-296, -125, -214, -368, -303, -262, -383, -385, -320, -445, -616, -443, -175, -368, -597, -426, -293, -383, -419, -385, -395, -419, -344, -255, -354, -488, -448, -332, -310, -339, -281, -315, -423, -407, -414, -313, -163, -317, -450, -361, -303, -245, -366, -467, -93, -45, -421, -298, -146, -262, -62, -79, -363, -226, -89, -214, -185, -79, -137, -195, -127, -65, -149, -45, 462, 770, 686, 243, -361, -375, -103, -199, -289])
('ECG', 1740337468552296540, [-207, -248, -204, -86, -255, -354, -187, -171, -257, -243, -238, -216, -192, -293, -325, -207, -209, -281, -231, -190, -252, -289, -248, -243, -262, -231, -281, -387, -346, -293, -375, -383, -291, -315, -370, -332, -322, -383, -411, -390, -378, -392, -383, -291, -267, -395, -395, -305, -402, -457, -317, -228, -342, -472, -438, -305, -101, -137, -419, -476, -395, -272, -163, -272, -344, -158, -77, -149, -96, -33, -178, -274, -77])
('ECG', 1740337469114122748, [-24, -190, -233, -192, -137, -161, -260, -291, -289, -317, -279, -55, 342, 657, 366, -327, -561, -467, -481, -479, -407, -204, -325, -722, -383, 7, -378, -496, -221, -245, -262, -163, -250, -320, -168, -132, -264, -272, -245, -262, -257, -339, -380, -277, -264, -358, -385, -436, -488, -469, -484, -428, -397, -513, -491, -402, -505, -580, -484, -421, -464, -669, -664, -281, -248, -537, -529, -301, -185, -274, -433, -563, -411])
('ECG', 1740337469675933696, [33, 130, -98, -156, -146, -118, -45, -86, -190, -204, -86, 38, -38, -146, -55, -9, -146, -195, -154, -183, -209, -192, -197, -252, -310, -339, -361, -228, 158, 529, 556, 38, -609, -633, -356, -399, -491, -423, -414, -436, -404, -414, -467, -467, -433, -419, -436, -460, -421, -370, -409, -423, -356, -366, -428, -378, -315, -342, -385, -421, -395, -363, -438, -455, -411, -486, -544, -467, -440, -525, -561, -522, -450])
('ECG', 1740337470237744644, [-409, -428, -414, -358, -354, -419, -436, -409, -419, -363, -289, -332, -378, -354, -337, -339, -342, -325, -317, -373, -392, -298, -264, -375, -399, -296, -233, -236, -267, -303, -305, -260, -228, -325, -373, -202, -161, -298, -272, -313, -436, -103, 679, 1327, 1216, 89, -869, -592, -236, -395, -358, -248, -337, -344, -262, -279, -296, -267, -252, -224, -219, -257, -226, -139, -98, -93, -101, -110, -79, -50, -57, -74, -91])
('ECG', 1740337470799555594, [-113, -139, -183, -183, -144, -125, -118, -154, -211, -240, -257, -228, -214, -281, -310, -286, -264, -313, -349, -240, -197, -277, -245, -221, -281, -142, -45, -325, -339, 26, -103, -332, -43, -12, -334, -255, 14, -86, -211, -122, -96, -197, -368, -296, 24, -65, -505, -414, 72, 43, -462, -354, 144, -103, -250, 467, 1093, 1021, 327, -373, -257, 84, -31, -199, -142, -36, -21, 31, 105, -21, -286, -238, 74])
('ECG', 1740337471361366542, [185, -33, -289, -127, 115, -14, -77, 65, 7, -103, -55, -142, -216, 14, 96, -142, -175, -36, -115, -158, -69, -149, -139, -16, -105, -202, -154, -146, -154, -69, -96, -192, -139, -105, -166, -115, -84, -216, -202, -96, -146, -190, -277, -392, -187, -21, -281, -224, 93, -48, -219, -115, -77, -286, -262, 190, 226, -178, -137, 219, 105, -161, -72, -14, -139, -197, -96, 125, 370, 674, 778, 120, -609])
('ECG', 1740337471923177490, [-436, -122, -221, -192, -130, -204, -211, -183, -219, -330, -293, -33, -9, -255, -274, -74, -113, -301, -180, -91, -183, -113, -118, -219, -175, -207, -257, -132, -240, -402, -171, -139, -450, -479, -262, -257, -469, -404, -187, -426, -438, -2, -185, -390, 14, 130, -28, -158, -305, -166, -26, -163, -175, -69, -149, -264, -233, -231, -245, -221, -264, -279, -274, -356, -366, -250, -195, -274, -385, -404, -358, -308, -317])
('ECG', 1740337472485008782, [-363, -337, -385, -488, -320, 115, 505, 556, -31, -778, -804, -488, -395, -330, -361, -476, -450, -438, -472, -421, -397, -407, -448, -525, -469, -383, -416, -397, -349, -404, -397, -313, -320, -339, -281, -272, -327, -310, -317, -409, -351, -233, -303, -315, -221, -317, -378, -277, -366, -397, -190, -279, -431, -158, -298, -819, -469, -31, -373, -407, -163, -358, -467, -264, -132, -255, -390, -24, 156, -325, -250, 144, -132])
('ECG', 1740337473046829904, [-277, -36, -62, -178, -130, -142, -156, -108, -192, -344, -337, -248, -286, -79, 481, 753, 503, -122, -498, -291, -257, -293, -93, -183, -320, -233, -289, -327, -149, -79, -195, -344, -337, -103, -120, -330, -214, -2, -122, -327, -233, -65, -103, -231, -303, -291, -219, -137, -134, -214, -228, -195, -245, -248, -166, -250, -279, -72, -79, -279, -209, -105, -202, -209, -103, -60, -139, -214, -139, -60, -91, -127, -91])
('ECG', 1740337473608640852, [-91, -161, -108, 12, -19, -98, -91, -72, -4, 43, -60, -81, 9, -65, -134, 4, 48, -86, -158, -125, -36, 199, 592, 787, 339, -320, -298, 7, -86, -161, -57, -98, -161, -118, -91, -84, -86, -127, -125, -84, -96, -118, -108, -91, -91, -103, -96, -93, -118, -139, -163, -156, -134, -173, -238, -211, -120, -151, -243, -195, -130, -228, -313, -199, -122, -224, -240, -134, -146, -209, -190, -139, -178])
('ECG', 1740337474170451802, [-291, -243, -118, -146, -214, -202, -183, -168, -161, -192, -192, -158, -146, -151, -146, -156, -204, -264, -281, -279, -320, -344, -315, -346, -476, -491, -202, 274, 614, 407, -351, -756, -479, -337, -443, -387, -317, -346, -346, -320, -317, -303, -264, -226, -231, -262, -250, -219, -219, -219, -204, -207, -221, -226, -233, -250, -252, -231, -221, -233, -257, -279, -281, -281, -305, -334, -334, -313, -320, -342, -313, -277, -291])
('ECG', 1740337474732293268, [-320, -320, -296, -281, -298, -320, -320, -317, -327, -327, -327, -342, -346, -356, -346, -305, -305, -344, -349, -313, -301, -354, -392, -349, -313, -349, -392, -380, -358, -395, -438, -305, 91, 537, 590, -65, -770, -691, -402, -481, -517, -428, -450, -474, -433, -431, -457, -443, -423, -421, -426, -433, -431, -419, -423, -423, -397, -373, -380, -402, -423, -433, -428, -419, -421, -445, -450, -448, -467, -467, -433, -414, -426])
('ECG', 1740337475294104216, [-433, -426, -419, -399, -363, -337, -346, -370, -366, -349, -344, -337, -344, -361, -361, -354, -358, -375, -387, -387, -387, -385, -375, -368, -363, -354, -351, -366, -378, -361, -332, -320, -327, -315, -305, -339, -291, 52, 575, 876, 476, -404, -643, -221, -132, -274, -185, -118, -187, -185, -127, -134, -149, -125, -113, -120, -118, -115, -120, -118, -108, -110, -120, -125, -144, -151, -132, -139, -187, -204, -183, -168, -178])
('ECG', 1740337475855915164, [-207, -219, -209, -211, -231, -209, -163, -137, -120, -103, -103, -98, -74, -48, -36, -26, -21, -14, 16, 50, 36, -2, -16, -9, -9, -21, -36, -36, -57, -101, -105, -79, -93, -132, -151, -173, -185, -173, -185, -260, -366, -236, 277, 804, 843, 149, -599, -513, -195, -286, -346, -269, -279, -281, -248, -267, -264, -219, -231, -264, -252, -243, -250, -231, -187, -175, -204, -209, -202, -231, -257, -228, -199])
('ECG', 1740337476417726112, [-243, -281, -255, -252, -293, -303, -308, -330, -313, -277, -286, -310, -327, -337, -313, -301, -284, -236, -260, -322, -320, -313, -332, -332, -320, -332, -342, -342, -390, -409, -332, -277, -310, -330, -308, -310, -342, -351, -317, -293, -305, -305, -308, -368, -443, -289, 214, 775, 896, 221, -602, -554, -197, -322, -433, -310, -305, -363, -322, -284, -279, -281, -301, -301, -279, -257, -245, -248, -262, -269, -267, -274, -286])
('ECG', 1740337476979537060, [-310, -322, -313, -308, -322, -322, -320, -330, -337, -339, -344, -354, -351, -334, -325, -322, -317, -317, -322, -315, -308, -313, -322, -325, -296, -269, -291, -317, -303, -286, -298, -315, -315, -301, -281, -272, -274, -269, -260, -250, -264, -289, -284, -264, -269, -279, -289, -337, -423, -286, 257, 845, 925, 231, -561, -486, -144, -284, -387, -262, -255, -298, -257, -240, -257, -231, -195, -199, -209, -202, -190, -183, -187])
('ECG', 1740337477541378528, [-190, -192, -214, -233, -243, -255, -272, -286, -286, -281, -293, -305, -296, -298, -315, -317, -310, -310, -315, -317, -317, -308, -305, -310, -310, -303, -301, -303, -305, -303, -296, -293, -301, -305, -305, -313, -325, -327, -317, -301, -293, -298, -298, -296, -303, -327, -332, -320, -325, -327, -330, -375, -411, -199, 330, 761, 541, -325, -828, -472, -226, -392, -385, -277, -308, -317, -262, -245, -240, -221, -214, -207, -190])
('ECG', 1740337478103189476, [-185, -187, -187, -185, -183, -183, -183, -192, -219, -231, -224, -224, -224, -214, -221, -243, -255, -260, -269, -279, -279, -293, -313, -293, -272, -289, -308, -301, -284, -284, -289, -286, -281, -279, -284, -281, -274, -277, -289, -301, -289, -262, -252, -257, -250, -245, -255, -279, -291, -279, -269, -274, -272, -274, -327, -385, -197, 310, 744, 594, -209, -775, -484, -156, -238, -250, -166, -190, -211, -178, -178, -207, -219])
('ECG', 1740337478665000424, [-228, -245, -248, -248, -250, -245, -250, -272, -274, -255, -236, -221, -199, -197, -199, -197, -216, -240, -250, -250, -255, -269, -293, -317, -325, -308, -291, -301, -308, -296, -274, -269, -289, -298, -293, -296, -303, -301, -301, -310, -313, -305, -310, -315, -313, -310, -305, -289, -277, -281, -305, -301, -281, -296, -303, -272, -272, -330, -339, -40, 522, 831, 404, -481, -770, -390, -255, -349, -289, -236, -260, -245, -216])
('ECG', 1740337479226811372, [-214, -199, -178, -163, -158, -163, -171, -163, -156, -161, -171, -168, -161, -180, -202, -207, -202, -199, -195, -197, -216, -248, -267, -279, -281, -279, -284, -291, -293, -289, -284, -291, -293, -286, -286, -289, -284, -277, -269, -279, -298, -291, -279, -293, -310, -303, -289, -277, -260, -243, -240, -245, -245, -250, -245, -209, -187, -190, -202, -296, -407, -199, 395, 879, 708, -132, -676, -383, -192, -390, -356, -228, -279])
('ECG', 1740337479788622320, [-308, -267, -257, -252, -224, -202, -192, -183, -192, -204, -209, -216, -221, -224, -236, -250, -262, -272, -267, -264, -277, -284, -296, -305, -298, -291, -301, -327, -351, -349, -339, -332, -310, -313, -346, -346, -320, -327, -334, -317, -303, -284, -274, -277, -264, -255, -277, -313, -317, -303, -303, -308, -301, -289, -301, -322, -313, -289, -286, -277, -269, -313, -373, -204, 286, 729, 631, -125, -729, -488, -183, -317, -356])
('ECG', 1740337480350433268, [-240, -250, -301, -274, -248, -245, -238, -228, -219, -214, -214, -211, -202, -204, -211, -204, -207, -221, -214, -192, -199, -216, -207, -197, -221, -260, -277, -236, -209, -257, -296, -286, -262, -245, -248, -269, -281, -264, -267, -298, -301, -284, -286, -298, -315, -332, -320, -308, -322, -330, -305, -301, -308, -281, -250, -262, -289, -305, -315, -317, -310, -305, -327, -397, -404, -113, 397, 672, 264, -520, -698, -298, -211])
('ECG', 1740337480912244218, [-363, -325, -267, -303, -284, -236, -260, -274, -252, -250, -245, -231, -236, -240, -238, -233, -221, -214, -236, -264, -255, -228, -231, -233, -233, -245, -250, -245, -257, -279, -293, -303, -315, -313, -286, -272, -293, -303, -279, -264, -264, -257, -260, -269, -267, -264, -262, -245, -240, -248, -248, -240, -236, -228, -219, -221, -228, -231, -248, -262, -252, -240, -245, -272, -337, -342, -65, 450, 763, 416, -385, -643, -257])
('ECG', 1740337481474055166, [-154, -322, -269, -185, -231, -248, -214, -197, -185, -173, -168, -166, -168, -166, -149, -139, -144, -139, -134, -144, -134, -120, -127, -137, -137, -139, -156, -171, -178, -190, -204, -216, -231, -233, -219, -209, -226, -243, -231, -216, -226, -226, -226, -243, -257, -262, -264, -260, -262, -277, -286, -284, -274, -260, -248, -238, -226, -224, -238, -248, -250, -260, -272, -289, -339, -373, -139, 385, 753, 448, -380, -703, -315])
('ECG', 1740337482035866114, [-195, -380, -339, -269, -317, -310, -250, -238, -255, -260, -257, -262, -262, -264, -267, -262, -250, -264, -284, -277, -274, -279, -272, -255, -221, -204, -257, -296, -277, -284, -313, -310, -315, -327, -320, -305, -286, -264, -255, -248, -240, -236, -233, -236, -233, -224, -214, -214, -224, -238, -233, -221, -226, -228, -221, -224, -233, -245, -255, -255, -257, -257, -255, -279, -363, -354, -16, 484, 681, 250, -462, -554, -178])
('ECG', 1740337482597677062, [-161, -291, -216, -178, -219, -197, -161, -168, -166, -144, -137, -139, -146, -144, -130, -120, -120, -122, -130, -118, -103, -110, -113, -103, -108, -122, -142, -173, -204, -226, -240, -248, -262, -272, -269, -267, -264, -255, -245, -248, -260, -260, -252, -250, -252, -255, -274, -298, -305, -301, -291, -274, -262, -264, -262, -262, -291, -320, -305, -286, -289, -301, -342, -433, -416, -57, 464, 643, 144, -590, -638, -264, -262])
('ECG', 1740337483159488010, [-375, -293, -262, -301, -281, -272, -284, -262, -236, -231, -245, -248, -211, -175, -173, -180, -187, -192, -195, -197, -195, -192, -185, -163, -149, -161, -185, -204, -207, -211, -228, -226, -216, -228, -231, -214, -221, -238, -240, -248, -262, -267, -260, -260, -274, -272, -264, -284, -284, -245, -238, -255, -250, -236, -238, -236, -211, -211, -248, -277, -289, -344, -361, -84, 433, 729, 428, -305, -604, -250, -93, -243, -248])
('ECG', 1740337483721298958, [-207, -228, -197, -163, -178, -171, -156, -161, -146, -137, -142, -110, -91, -130, -146, -115, -120, -158, -171, -154, -154, -175, -178, -171, -192, -216, -214, -207, -211, -211, -204, -204, -214, -216, -204, -197, -202, -204, -199, -192, -190, -187, -197, -216, -228, -228, -224, -216, -216, -214, -202, -190, -199, -216, -228, -236, -238, -238, -269, -349, -368, -72, 476, 792, 416, -414, -657, -269, -195, -310, -211, -168, -224])
('ECG', 1740337484283109908, [-209, -187, -180, -158, -166, -180, -163, -154, -151, -130, -120, -134, -144, -134, -137, -149, -146, -142, -146, -156, -154, -154, -166, -183, -199, -228, -264, -262, -243, -255, -272, -264, -252, -252, -277, -293, -277, -264, -267, -257, -260, -279, -284, -269, -260, -257, -257, -257, -260, -262, -284, -296, -274, -248, -252, -327, -443, -380, 36, 556, 696, 101, -667, -616, -216, -250, -320, -214, -199, -245, -219, -190, -202])
('ECG', 1740337484844920856, [-209, -192, -173, -161, -154, -149, -142, -146, -149, -132, -134, -161, -163, -156, -166, -166, -166, -171, -166, -180, -219, -228, -221, -262, -298, -279, -264, -274, -267, -252, -257, -260, -243, -233, -264, -289, -274, -267, -277, -269, -257, -250, -238, -219, -228, -262, -264, -252, -264, -274, -264, -298, -390, -346, 26, 520, 681, 134, -626, -597, -190, -224, -310, -199, -187, -243, -209, -178, -197, -197, -171, -161, -154])
('ECG', 1740337485406731804, [-149, -146, -146, -154, -151, -139, -139, -144, -149, -161, -166, -151, -156, -190, -202, -192, -207, -236, -250, -252, -257, -257, -255, -257, -250, -233, -248, -296, -289, -252, -255, -260, -252, -262, -274, -267, -257, -255, -240, -236, -238, -240, -262, -272, -257, -260, -274, -322, -421, -356, 93, 621, 698, 69, -645, -537, -144, -207, -313, -248, -236, -245, -211, -209, -219, -199, -190, -185, -168, -156, -149, -144, -158])
('ECG', 1740337485968542752, [-166, -149, -146, -163, -168, -171, -178, -185, -183, -185, -204, -219, -216, -226, -245, -245, -248, -269, -279, -255, -248, -257, -250, -245, -252, -243, -236, -252, -274, -272, -260, -260, -260, -257, -248, -226, -207, -221, -269, -281, -255, -250, -277, -346, -421, -238, 264, 684, 558, -163, -643, -356, -149, -320, -308, -195, -236, -257, -216, -224, -231, -192, -183, -202, -185, -166, -175, -168, -154, -161, -158, -158, -185])
('ECG', 1740337486530353700, [-197, -178, -180, -202, -197, -195, -219, -231, -226, -231, -228, -231, -240, -240, -245, -262, -250, -226, -228, -255, -269, -250, -233, -236, -231, -226, -224, -219, -211, -224, -238, -197, -202, -274, -272, -245, -260, -243, -236, -325, -380, -127, 380, 727, 513, -202, -561, -250, -105, -267, -240, -192, -274, -257, -185, -185, -180, -151, -154, -168, -154, -125, -122, -163, -190, -166, -134, -125, -132, -134, -144, -166, -166])
('ECG', 1740337487092164648, [-161, -178, -197, -207, -209, -219, -243, -255, -257, -257, -236, -221, -236, -248, -245, -262, -267, -245, -238, -245, -260, -281, -286, -272, -260, -236, -214, -226, -250, -272, -274, -262, -269, -286, -317, -399, -380, -33, 462, 631, 173, -505, -541, -190, -216, -346, -264, -231, -277, -252, -221, -243, -250, -221, -211, -207, -183, -175, -187, -175, -166, -175, -180, -183, -187, -180, -183, -197, -185, -171, -195, -226, -236])
('ECG', 1740337487653945080, [-248, -262, -272, -272, -264, -279, -301, -286, -262, -274, -286, -277, -262, -264, -267, -272, -284, -286, -279, -267, -257, -252, -248, -236, -243, -272, -284, -269, -257, -272, -332, -399, -252, 207, 611, 488, -173, -607, -349, -134, -279, -298, -207, -224, -250, -221, -199, -199, -192, -192, -195, -178, -168, -173, -166, -154, -154, -156, -156, -156, -166, -175, -161, -146, -156, -168, -180, -199, -221, -236, -245, -257, -269])
('ECG', 1740337488215756028, [-267, -257, -262, -272, -262, -252, -252, -255, -257, -264, -267, -269, -267, -257, -252, -257, -252, -231, -219, -228, -245, -260, -260, -257, -260, -277, -344, -370, -93, 416, 676, 320, -380, -556, -219, -171, -310, -250, -197, -240, -233, -202, -204, -199, -190, -197, -197, -178, -161, -166, -173, -166, -158, -156, -149, -151, -161, -163, -154, -149, -154, -173, -202, -221, -219, -238, -262, -250, -238, -255, -264, -260, -255])
('ECG', 1740337488777566976, [-260, -264, -264, -267, -260, -255, -264, -267, -262, -272, -281, -262, -228, -221, -231, -233, -250, -264, -257, -255, -272, -315, -392, -339, 62, 573, 662, 108, -522, -462, -149, -231, -327, -238, -219, -248, -226, -216, -211, -192, -183, -185, -180, -168, -156, -151, -154, -156, -158, -166, -156, -149, -156, -144, -130, -134, -161, -197, -226, -231, -221, -240, -264, -240, -204, -233, -274, -267, -250, -262, -274, -260, -245])
('ECG', 1740337489339377924, [-245, -252, -255, -264, -281, -291, -291, -260, -219, -224, -243, -248, -262, -272, -277, -281, -284, -334, -419, -272, 216, 652, 556, -103, -566, -337, -144, -313, -337, -228, -240, -269, -236, -219, -231, -226, -209, -199, -204, -211, -199, -178, -171, -185, -183, -171, -178, -192, -192, -180, -163, -161, -173, -195, -224, -243, -262, -289, -293, -269, -267, -277, -274, -272, -272, -272, -289, -308, -303, -284, -272, -274, -289])
('ECG', 1740337489901158354, [-303, -303, -267, -252, -274, -262, -233, -267, -298, -286, -286, -313, -361, -433, -342, 98, 616, 688, 86, -541, -443, -195, -330, -390, -277, -274, -315, -291, -277, -281, -262, -240, -240, -257, -267, -257, -233, -221, -226, -238, -240, -231, -228, -238, -231, -202, -183, -197, -233, -257, -262, -272, -301, -322, -308, -291, -296, -303, -298, -289, -286, -291, -301, -298, -281, -279, -303, -330, -325, -305, -284, -272, -279])
('ECG', 1740337490462969302, [-264, -245, -274, -298, -281, -279, -308, -356, -416, -315, 125, 611, 594, -50, -611, -450, -180, -293, -344, -250, -252, -279, -250, -240, -257, -257, -240, -216, -195, -197, -211, -216, -221, -224, -211, -197, -190, -183, -175, -173, -168, -163, -190, -221, -224, -224, -238, -245, -255, -267, -277, -281, -274, -274, -286, -274, -245, -243, -257, -255, -245, -262, -274, -257, -245, -231, -216, -216, -211, -216, -255, -277, -262])
('ECG', 1740337491024780252, [-248, -274, -363, -428, -219, 279, 647, 395, -354, -660, -305, -175, -342, -305, -226, -269, -257, -209, -226, -236, -214, -211, -219, -214, -209, -192, -158, -171, -207, -195, -166, -166, -156, -137, -151, -171, -168, -183, -211, -238, -257, -267, -269, -274, -279, -281, -277, -279, -286, -277, -255, -255, -262, -267, -262, -255, -264, -267, -255, -262, -269, -260, -255, -260, -257, -274, -301, -296, -305, -385, -416, -163, 346])
('ECG', 1740337491586591200, [672, 344, -409, -638, -255, -144, -303, -269, -202, -255, -272, -231, -224, -219, -197, -195, -204, -211, -197, -183, -187, -190, -180, -187, -190, -166, -144, -154, -171, -171, -171, -195, -214, -214, -238, -277, -296, -301, -303, -291, -279, -281, -291, -291, -286, -284, -284, -291, -293, -284, -272, -267, -269, -262, -243, -238, -243, -252, -260, -260, -257, -267, -308, -392, -354, 21, 508, 597, 55, -563, -464, -115, -190])
('ECG', 1740337492148371630, [-291, -207, -221, -284, -255, -219, -216, -221, -221, -209, -204, -216, -219, -216, -226, -219, -195, -183, -195, -195, -195, -204, -214, -224, -221, -226, -250, -260, -257, -267, -286, -289, -284, -291, -296, -289, -289, -286, -272, -274, -291, -286, -277, -286, -284, -255, -243, -243, -221, -204, -219, -240, -250, -255, -269, -317, -436, -493, -202, 334, 585, 146, -568, -623, -216, -185, -308, -219, -173, -231, -224, -187, -190])
('ECG', 1740337492710182578, [-202, -197, -183, -175, -175, -178, -197, -209, -199, -183, -171, -175, -187, -185, -178, -163, -161, -187, -211, -221, -236, -252, -267, -286, -301, -289, -260, -255, -267, -277, -279, -281, -284, -291, -291, -286, -279, -277, -272, -267, -262, -257, -255, -272, -296, -291, -284, -296, -330, -409, -402, -65, 423, 568, 65, -614, -568, -154, -183, -313, -219, -190, -245, -226, -197, -211, -197, -166, -166, -161, -127, -125, -144])
('ECG', 1740337493271993526, [-125, -98, -130, -163, -149, -139, -151, -154, -146, -149, -171, -209, -233, -238, -255, -274, -279, -281, -284, -289, -293, -296, -291, -274, -262, -262, -264, -272, -291, -301, -281, -262, -255, -255, -250, -248, -272, -291, -286, -284, -303, -373, -486, -416, 24, 520, 580, -4, -638, -520, -178, -264, -354, -250, -228, -260, -231, -226, -236, -204, -180, -178, -158, -134, -110, -96, -93, -91, -118, -166, -183, -192, -219])
('ECG', 1740337493833773956, [-226, -207, -192, -211, -228, -197, -171, -209, -255, -267, -274, -277, -264, -260, -267, -264, -269, -289, -289, -277, -289, -303, -293, -284, -289, -284, -260, -257, -279, -298, -303, -291, -284, -301, -375, -505, -423, 72, 602, 568, -178, -751, -443, -130, -289, -310, -192, -219, -245, -199, -204, -243, -240, -207, -185, -173, -168, -168, -175, -199, -209, -171, -154, -180, -190, -175, -161, -154, -171, -202, -209, -195, -207])
('ECG', 1740337494395584906, [-238, -252, -243, -248, -257, -243, -224, -216, -209, -207, -214, -219, -226, -238, -238, -231, -243, -255, -233, -219, -236, -252, -260, -257, -260, -267, -293, -390, -455, -199, 351, 722, 431, -349, -614, -204, -103, -310, -279, -195, -219, -209, -187, -207, -211, -187, -185, -199, -192, -192, -211, -199, -168, -173, -199, -211, -214, -216, -207, -190, -173, -171, -178, -175, -168, -173, -187, -192, -190, -197, -216, -221, -219])
('ECG', 1740337494957365336, [-228, -243, -255, -264, -260, -252, -264, -274, -262, -260, -262, -250, -221, -183, -185, -219, -231, -226, -226, -240, -308, -423, -330, 158, 679, 662, -55, -647, -397, -101, -267, -310, -192, -211, -243, -202, -199, -231, -240, -224, -195, -175, -171, -178, -187, -180, -185, -209, -224, -224, -224, -228, -219, -190, -161, -166, -190, -187, -187, -207, -207, -211, -228, -207, -185, -231, -250, -202, -199, -243, -240, -216, -233])
('ECG', 1740337495519145766, [-274, -298, -289, -277, -279, -252, -228, -257, -272, -233, -224, -252, -262, -293, -387, -358, 28, 549, 696, 192, -488, -488, -161, -228, -337, -255, -248, -293, -260, -221, -240, -257, -240, -221, -214, -211, -195, -192, -211, -207, -192, -207, -219, -207, -183, -175, -195, -214, -197, -175, -195, -226, -236, -250, -262, -252, -250, -252, -257, -267, -257, -240, -243, -245, -255, -269, -272, -286, -310, -308, -284, -284, -310])
('ECG', 1740337496080956714, [-305, -269, -277, -308, -296, -286, -291, -317, -411, -354, 132, 710, 737, 40, -628, -484, -149, -264, -358, -245, -228, -272, -238, -219, -243, -243, -228, -231, -226, -209, -209, -219, -202, -175, -197, -231, -216, -199, -209, -202, -190, -199, -207, -197, -211, -228, -228, -226, -231, -238, -252, -267, -279, -281, -269, -248, -243, -260, -279, -269, -250, -262, -269, -243, -226, -240, -272, -279, -252, -250, -289, -298, -264])
('ECG', 1740337496642737144, [-260, -344, -428, -248, 252, 691, 592, -134, -626, -291, -55, -281, -303, -161, -185, -233, -190, -171, -187, -166, -134, -130, -144, -149, -134, -139, -158, -158, -158, -158, -149, -154, -168, -142, -125, -151, -168, -178, -204, -224, -224, -216, -221, -236, -224, -224, -248, -236, -219, -236, -245, -240, -236, -231, -252, -272, -245, -209, -211, -219, -219, -219, -226, -248, -255, -243, -252, -289, -373, -440, -202, 368, 763])
('ECG', 1740337497204517574, [474, -322, -626, -250, -142, -342, -305, -214, -252, -245, -207, -221, -231, -202, -173, -178, -185, -173, -166, -180, -195, -202, -202, -207, -216, -216, -207, -199, -192, -195, -214, -224, -228, -245, -248, -252, -274, -281, -269, -269, -279, -269, -269, -281, -262, -255, -277, -272, -264, -272, -267, -257, -262, -264, -248, -238, -255, -272, -281, -277, -257, -301, -431, -392, 40, 573, 667, 72, -607, -503, -134, -211, -301])
('ECG', 1740337497766328524, [-202, -209, -269, -231, -195, -207, -197, -190, -204, -185, -154, -151, -156, -156, -163, -168, -146, -115, -142, -195, -183, -142, -142, -156, -156, -154, -142, -151, -204, -226, -199, -190, -190, -185, -209, -226, -204, -197, -219, -219, -207, -236, -245, -219, -228, -233, -211, -204, -204, -219, -264, -281, -252, -252, -289, -344, -404, -255, 228, 652, 505, -204, -638, -354, -151, -298, -289, -202, -252, -277, -236, -221, -224])
('ECG', 1740337498328108954, [-211, -204, -211, -216, -207, -180, -171, -195, -221, -228, -228, -248, -262, -233, -190, -197, -231, -233, -231, -255, -281, -293, -298, -301, -303, -303, -301, -293, -284, -296, -303, -277, -264, -272, -277, -284, -279, -264, -255, -238, -214, -202, -209, -214, -214, -214, -214, -219, -233, -305, -402, -216, 330, 780, 604, -166, -585, -255, -89, -274, -252, -149, -156, -149, -173, -226, -185, -142, -151, -137, -118, -134, -146])
('ECG', 1740337498889889384, [-144, -149, -151, -154, -163, -171, -158, -146, -142, -139, -149, -151, -146, -154, -171, -183, -195, -209, -214, -216, -226, -238, -243, -236, -231, -240, -243, -236, -248, -264, -260, -250, -248, -248, -240, -226, -214, -231, -255, -257, -248, -240, -284, -385, -375, -24, 515, 705, 158, -590, -546, -118, -158, -289, -185, -154, -187, -151, -144, -175, -171, -149, -146, -146, -139, -137, -142, -149, -158, -173, -175, -161, -156])
('ECG', 1740337499451669814, [-163, -168, -161, -154, -161, -180, -187, -190, -207, -211, -204, -228, -238, -211, -204, -211, -187, -173, -204, -226, -216, -228, -250, -250, -240, -226, -216, -214, -209, -192, -190, -221, -257, -257, -226, -216, -269, -373, -334, 65, 592, 722, 166, -513, -450, -105, -204, -308, -202, -207, -260, -233, -214, -207, -185, -185, -192, -195, -192, -180, -175, -192, -199, -192, -190, -195, -199, -207, -204, -197, -195, -187, -173])
('ECG', 1740337500013480762, [-178, -204, -238, -245, -231, -233, -243, -238, -231, -240, -245, -238, -233, -238, -240, -238, -240, -243, -233, -221, -224, -224, -209, -195, -195, -207, -211, -209, -207, -211, -255, -368, -356, 45, 599, 732, 151, -554, -488, -115, -183, -296, -197, -183, -236, -199, -168, -195, -207, -199, -185, -151, -142, -166, -173, -166, -180, -197, -199, -207, -209, -190, -171, -171, -175, -183, -199, -214, -226, -243, -257, -257, -245])
('ECG', 1740337500575261192, [-236, -245, -255, -250, -248, -255, -267, -267, -260, -262, -267, -269, -277, -267, -245, -248, -255, -240, -226, -240, -257, -252, -250, -257, -293, -387, -349, 57, 575, 647, 33, -631, -520, -144, -187, -264, -178, -166, -207, -192, -175, -187, -185, -166, -161, -166, -146, -134, -149, -158, -161, -171, -175, -173, -183, -185, -154, -122, -132, -149, -156, -171, -187, -202, -214, -226, -224, -221, -231, -236, -233, -231, -228])
('ECG', 1740337501137041624, [-226, -219, -224, -240, -248, -260, -274, -255, -233, -236, -238, -219, -211, -238, -252, -240, -240, -269, -325, -404, -310, 134, 621, 599, -91, -688, -469, -132, -240, -303, -209, -216, -233, -183, -178, -209, -216, -202, -190, -197, -202, -190, -185, -187, -187, -192, -197, -187, -183, -195, -204, -204, -204, -199, -202, -211, -224, -238, -240, -260, -274, -250, -243, -262, -255, -248, -264, -262, -252, -262, -257, -236, -238])
('ECG', 1740337501698852572, [-264, -274, -250, -219, -216, -226, -228, -252, -257, -221, -216, -267, -334, -385, -216, 264, 662, 464, -284, -662, -277, -62, -257, -260, -156, -199, -224, -178, -166, -158, -134, -137, -151, -142, -137, -142, -134, -137, -154, -175, -195, -183, -149, -134, -139, -144, -161, -187, -195, -207, -228, -219, -199, -219, -243, -238, -221, -221, -231, -228, -221, -219, -216, -233, -260, -267, -252, -226, -204, -211, -214, -195, -199])
('ECG', 1740337502260633002, [-236, -250, -236, -233, -248, -272, -346, -378, -103, 426, 720, 332, -440, -623, -214, -130, -303, -248, -161, -199, -211, -180, -175, -183, -180, -185, -192, -178, -144, -139, -163, -173, -173, -199, -214, -187, -178, -199, -192, -175, -185, -195, -187, -202, -243, -260, -228, -224, -252, -245, -219, -228, -240, -236, -238, -262, -267, -233, -226, -260, -260, -236, -238, -238, -226, -224, -226, -240, -260, -250, -236, -245, -303])
('ECG', 1740337502822413432, [-402, -351, 52, 563, 631, -7, -691, -554, -163, -226, -284, -161, -171, -228, -192, -180, -197, -166, -137, -142, -142, -134, -137, -146, -156, -156, -156, -166, -161, -127, -120, -132, -120, -134, -175, -195, -202, -219, -228, -224, -231, -245, -228, -204, -214, -233, -238, -238, -231, -216, -209, -214, -228, -233, -231, -221, -199, -180, -199, -226, -224, -221, -231, -228, -214, -236, -342, -409, -144, 385, 691, 354, -404])
('ECG', 1740337503384193862, [-626, -221, -134, -322, -264, -175, -216, -224, -199, -195, -197, -207, -214, -207, -195, -195, -211, -214, -190, -190, -226, -240, -226, -224, -219, -207, -209, -209, -207, -216, -221, -224, -245, -260, -236, -221, -228, -219, -199, -214, -236, -219, -199, -209, -216, -228, -252, -245, -209, -197, -214, -216, -199, -202, -221, -221, -214, -219, -233, -286, -380, -272, 197, 676, 609, -96, -621, -378, -115, -248, -264, -166, -199])
('ECG', 1740337503946004810, [-221, -173, -166, -183, -171, -163, -178, -173, -144, -139, -158, -166, -161, -168, -180, -175, -166, -166, -163, -156, -139, -132, -168, -216, -214, -180, -192, -231, -228, -202, -209, -219, -195, -185, -219, -233, -211, -199, -211, -226, -228, -238, -252, -250, -233, -221, -221, -216, -221, -250, -260, -238, -277, -399, -351, 93, 621, 609, -137, -773, -532, -154, -238, -289, -185, -187, -211, -166, -144, -168, -178, -168, -161])
('ECG', 1740337504507785242, [-146, -137, -139, -132, -127, -151, -156, -127, -125, -146, -163, -180, -195, -185, -183, -204, -214, -214, -231, -248, -250, -248, -257, -274, -274, -255, -245, -245, -240, -236, -245, -255, -252, -226, -199, -207, -231, -231, -216, -207, -209, -214, -214, -207, -221, -296, -375, -233, 245, 693, 573, -183, -703, -392, -81, -214, -262, -173, -173, -187, -175, -187, -187, -166, -161, -158, -158, -161, -156, -151, -156, -161, -154])
('ECG', 1740337505069565672, [-149, -154, -158, -149, -137, -142, -146, -146, -161, -195, -214, -214, -216, -219, -207, -207, -216, -207, -195, -214, -238, -228, -207, -204, -216, -221, -211, -197, -192, -195, -207, -209, -207, -214, -224, -214, -199, -219, -305, -368, -151, 361, 713, 414, -334, -592, -231, -122, -284, -245, -163, -185, -187, -171, -185, -192, -175, -171, -171, -166, -156, -144, -151, -178, -190, -185, -190, -199, -190, -175, -178, -175, -178])
('ECG', 1740337505631346102, [-195, -197, -185, -195, -214, -214, -216, -224, -221, -219, -224, -211, -192, -209, -233, -224, -221, -248, -250, -211, -187, -202, -211, -192, -195, -221, -228, -214, -224, -238, -255, -322, -303, 50, 554, 662, 96, -532, -445, -130, -204, -277, -187, -187, -219, -185, -168, -175, -163, -161, -168, -163, -158, -166, -163, -161, -173, -183, -180, -178, -173, -158, -151, -161, -173, -173, -178, -195, -209, -207, -202, -216, -214])
('ECG', 1740337506193126532, [-197, -199, -216, -219, -211, -216, -219, -211, -216, -228, -228, -224, -224, -209, -204, -214, -199, -195, -226, -228, -202, -214, -250, -298, -351, -183, 305, 681, 404, -346, -647, -286, -105, -240, -231, -163, -190, -211, -197, -183, -163, -151, -163, -168, -158, -149, -151, -161, -163, -161, -163, -168, -168, -171, -168, -154, -154, -171, -183, -192, -207, -219, -219, -221, -236, -252, -243, -233, -245, -240, -216, -214, -228])
('ECG', 1740337506754937480, [-240, -250, -264, -264, -248, -224, -211, -211, -209, -209, -231, -260, -264, -240, -207, -238, -354, -351, 7, 508, 623, 57, -621, -539, -142, -187, -298, -195, -168, -224, -204, -175, -192, -195, -173, -163, -166, -158, -151, -163, -178, -173, -173, -195, -204, -173, -149, -163, -175, -175, -178, -192, -207, -214, -226, -250, -262, -255, -238, -216, -214, -226, -231, -228, -231, -231, -240, -255, -243, -226, -231, -231, -216])
('ECG', 1740337507316717910, [-209, -207, -214, -226, -228, -228, -231, -243, -322, -378, -127, 395, 708, 380, -361, -602, -243, -132, -260, -204, -154, -199, -180, -154, -178, -185, -180, -171, -146, -139, -156, -163, -154, -168, -192, -195, -183, -183, -192, -183, -156, -151, -178, -190, -199, -214, -209, -202, -214, -224, -214, -209, -207, -204, -207, -211, -202, -199, -216, -228, -224, -226, -221, -204, -192, -195, -190, -190, -211, -236, -233, -211, -216])
('ECG', 1740337507878498342, [-272, -346, -248, 192, 657, 585, -105, -607, -368, -110, -238, -257, -149, -178, -214, -178, -175, -192, -175, -156, -149, -149, -154, -154, -158, -178, -190, -185, -187, -192, -168, -151, -163, -171, -171, -180, -185, -197, -214, -219, -202, -199, -219, -226, -211, -197, -209, -224, -207, -192, -216, -243, -243, -233, -226, -214, -195, -185, -187, -192, -214, -228, -226, -226, -236, -257, -322, -325, -24, 469, 652, 168, -517])
('ECG', 1740337508440278772, [-534, -163, -166, -279, -202, -180, -231, -197, -154, -166, -171, -168, -183, -180, -151, -151, -173, -175, -173, -171, -171, -173, -173, -168, -161, -158, -166, -175, -195, -209, -214, -224, -226, -216, -216, -226, -233, -236, -226, -221, -236, -240, -226, -219, -233, -245, -236, -221, -226, -240, -228, -209, -216, -228, -226, -228, -243, -248, -291, -370, -255, 195, 623, 496, -236, -708, -397, -115, -248, -274, -185, -195, -195])
('ECG', 1740337509002059202, [-163, -175, -183, -166, -168, -168, -149, -144, -158, -161, -161, -175, -195, -183, -151, -134, -134, -149, -168, -183, -202, -226, -226, -214, -221, -238, -245, -252, -262, -262, -248, -236, -231, -236, -243, -243, -240, -262, -274, -260, -243, -231, -216, -219, -231, -245, -260, -264, -252, -238, -269, -366, -354, 2, 505, 631, 77, -621, -570, -166, -187, -298, -199, -173, -224, -199, -175, -187, -178, -163, -168, -168, -158])
('ECG', 1740337509563839632, [-154, -151, -158, -171, -171, -166, -166, -166, -166, -158, -142, -144, -178, -202, -207, -216, -228, -219, -204, -216, -231, -221, -219, -226, -224, -221, -224, -207, -202, -224, -243, -240, -224, -216, -211, -211, -202, -190, -207, -236, -228, -216, -233, -284, -368, -301, 127, 633, 640, -24, -604, -411, -110, -231, -286, -178, -175, -202, -168, -161, -183, -185, -178, -173, -158, -146, -154, -168, -178, -180, -171, -175, -199])
('ECG', 1740337510125620062, [-197, -171, -158, -163, -168, -175, -197, -214, -211, -214, -224, -226, -221, -221, -221, -209, -204, -219, -226, -221, -224, -236, -231, -221, -226, -226, -221, -211, -207, -209, -209, -209, -221, -228, -226, -231, -284, -370, -274, 168, 631, 575, -93, -619, -404, -118, -219, -260, -180, -207, -236, -185, -163, -183, -175, -161, -163, -168, -173, -173, -166, -175, -187, -175, -166, -175, -178, -163, -158, -173, -175, -183, -202])
('ECG', 1740337510687400492, [-202, -199, -216, -231, -228, -221, -221, -231, -236, -226, -209, -214, -224, -216, -211, -240, -264, -252, -226, -214, -207, -202, -204, -209, -211, -228, -236, -238, -243, -289, -361, -257, 180, 633, 566, -110, -633, -426, -151, -248, -267, -156, -173, -211, -187, -185, -199, -185, -175, -175, -158, -144, -158, -173, -173, -175, -190, -183, -158, -151, -156, -154, -156, -178, -202, -214, -216, -214, -221, -228, -228, -228, -240])
('ECG', 1740337511249180924, [-243, -228, -219, -226, -243, -245, -226, -226, -243, -243, -243, -248, -248, -236, -219, -211, -216, -219, -231, -248, -243, -233, -250, -317, -351, -130, 356, 662, 308, -464, -681, -267, -130, -274, -226, -158, -209, -209, -168, -173, -178, -173, -175, -171, -154, -154, -163, -158, -156, -161, -151, -142, -154, -166, -151, -144, -163, -195, -204, -207, -221, -240, -252, -255, -236, -219, -240, -260, -250, -240, -243, -236, -233])
('ECG', 1740337511810991872, [-245, -243, -240, -262, -274, -250, -224, -211, -216, -228, -224, -231, -257, -260, -245, -252, -315, -375, -185, 315, 672, 370, -407, -693, -286, -113, -284, -255, -161, -199, -211, -175, -168, -168, -168, -168, -161, -163, -183, -178, -154, -149, -158, -158, -156, -163, -151, -132, -137, -166, -192, -197, -197, -211, -228, -236, -236, -228, -224, -226, -224, -224, -224, -221, -224, -228, -221, -219, -233, -243, -236, -221, -214])
('ECG', 1740337512372772302, [-207, -199, -199, -211, -224, -226, -224, -231, -243, -289, -361, -231, 240, 681, 534, -197, -631, -325, -105, -248, -245, -161, -202, -214, -168, -168, -178, -156, -156, -168, -158, -158, -168, -168, -163, -166, -173, -178, -178, -173, -166, -163, -161, -158, -171, -199, -214, -211, -216, -228, -224, -207, -207, -211, -214, -224, -228, -216, -204, -204, -211, -214, -226, -240, -233, -224, -221, -204, -178, -173, -204, -231, -226])
('ECG', 1740337512934552732, [-214, -219, -274, -368, -298, 118, 611, 638, 14, -570, -421, -127, -228, -272, -161, -173, -214, -175, -158, -166, -154, -149, -163, -175, -171, -154, -146, -154, -161, -158, -163, -163, -154, -154, -161, -166, -171, -180, -183, -180, -197, -216, -211, -204, -214, -219, -211, -219, -231, -219, -209, -209, -211, -214, -221, -231, -238, -226, -204, -204, -214, -204, -183, -187, -226, -245, -228, -219, -260, -330, -305, 2, 498])
('ECG', 1740337513496333162, [672, 149, -549, -527, -142, -161, -281, -202, -175, -216, -195, -173, -187, -175, -154, -163, -163, -146, -149, -163, -173, -168, -161, -173, -183, -158, -142, -154, -161, -163, -183, -199, -204, -214, -226, -231, -228, -226, -231, -236, -236, -228, -211, -216, -236, -240, -226, -226, -245, -255, -255, -238, -214, -207, -214, -204, -214, -240, -245, -243, -245, -257, -322, -356, -103, 402, 655, 228, -527, -660, -240, -149, -289])
('ECG', 1740337514058083074, [-214, -149, -207, -211, -180, -183, -180, -166, -171, -171, -161, -156, -149, -149, -158, -163, -158, -156, -158, -158, -144, -144, -163, -187, -209, -224, -245, -257, -243, -233, -243, -245, -240, -248, -252, -250, -262, -264, -243, -226, -233, -245, -245, -248, -252, -248, -240, -238, -226, -214, -224, -252, -260, -250, -262, -332, -380, -146, 375, 688, 298, -498, -693, -252, -120, -281, -240, -171, -219, -216, -168, -163, -175])
('ECG', 1740337514619863506, [-171, -161, -161, -161, -158, -158, -171, -180, -175, -166, -158, -151, -144, -146, -161, -173, -180, -199, -236, -250, -233, -214, -226, -236, -228, -231, -231, -221, -226, -231, -224, -219, -221, -219, -216, -219, -221, -216, -221, -231, -224, -192, -175, -195, -202, -183, -187, -238, -330, -378, -137, 390, 732, 407, -363, -594, -185, -72, -245, -199, -132, -190, -192, -154, -163, -158, -125, -122, -139, -137, -137, -154, -171])
('ECG', 1740337515181643936, [-183, -192, -183, -168, -166, -156, -142, -151, -187, -214, -214, -207, -199, -197, -209, -221, -224, -219, -214, -211, -221, -226, -216, -204, -199, -199, -204, -216, -221, -209, -211, -221, -219, -197, -171, -158, -180, -209, -224, -224, -226, -286, -351, -158, 351, 720, 431, -322, -594, -236, -113, -267, -228, -166, -216, -209, -163, -175, -185, -156, -146, -161, -166, -161, -168, -187, -185, -171, -175, -175, -163, -171, -173])
('ECG', 1740337515743424366, [-149, -151, -197, -216, -211, -231, -252, -228, -187, -195, -240, -252, -236, -236, -250, -260, -262, -248, -219, -219, -257, -262, -248, -264, -262, -216, -207, -233, -255, -267, -252, -231, -250, -291, -354, -380, -130, 395, 691, 279, -498, -655, -267, -187, -272, -168, -149, -231, -216, -195, -228, -224, -158, -103, -115, -166, -175, -154, -168, -204, -221, -211, -195, -185, -154, -137, -166, -183, -175, -202, -238, -250, -250])
('ECG', 1740337516305204796, [-257, -279, -286, -240, -204, -226, -243, -236, -248, -252, -240, -238, -238, -233, -226, -216, -219, -221, -209, -202, -214, -228, -226, -221, -231, -233, -245, -308, -233, 178, 633, 556, -161, -708, -450, -113, -211, -272, -168, -144, -178, -180, -190, -211, -204, -173, -144, -132, -137, -149, -154, -158, -175, -187, -180, -183, -187, -171, -163, -190, -197, -195, -226, -257, -264, -264, -264, -260, -257, -250, -243, -240, -245])
('ECG', 1740337516866985226, [-238, -236, -240, -233, -228, -243, -248, -236, -224, -219, -202, -195, -214, -233, -236, -231, -228, -224, -250, -332, -327, 2, 525, 703, 154, -602, -573, -122, -139, -284, -185, -144, -199, -178, -146, -156, -151, -137, -142, -144, -139, -134, -134, -137, -142, -137, -139, -151, -146, -130, -134, -163, -173, -158, -163, -190, -211, -226, -238, -236, -224, -219, -224, -226, -228, -231, -221, -216, -221, -226, -231, -233, -226])
('ECG', 1740337517428765656, [-216, -207, -204, -202, -192, -199, -228, -231, -216, -214, -240, -322, -368, -93, 472, 802, 385, -472, -655, -168, -74, -264, -187, -108, -178, -180, -137, -146, -149, -130, -139, -142, -127, -137, -146, -142, -144, -142, -142, -146, -130, -105, -103, -115, -118, -125, -151, -180, -185, -183, -187, -195, -197, -192, -195, -197, -192, -185, -187, -204, -214, -199, -195, -214, -226, -219, -199, -187, -202, -211, -199, -216, -236])
('ECG', 1740337517990515570, [-214, -204, -257, -354, -390, -105, 496, 884, 508, -375, -633, -183, -105, -334, -284, -171, -185, -226, -233, -190, -149, -156, -180, -192, -187, -183, -190, -185, -199, -236, -228, -197, -199, -209, -185, -173, -199, -245, -286, -310, -298, -296, -325, -293, -236, -262, -250, -214, -267, -317, -320, -310, -308, -289, -199, -175, -255, -260, -211, -190, -187, -197, -163, -178, -269, -245, -156, -175, -286, -320, -21, 551, 802])
('ECG', 1740337518552296000, [257, -448, -395, -134, -289, -315, -113, -101, -178, -192, -240, -221, -86, -16, -67, -134, -146, -118, -103, -96, -77, -65, -93, -139, -127, -113, -161, -175, -166, -204, -168, -93, -221, -334, -185, -156, -320, -262, -96, -132, -209, -163, -178, -214, -103, -86, -180, -120, 48, 137, 33, -72, -31, -48, -190, -281, -279, -354, -515, -611, -587, -260, 286, 363, -431, -1262, -1293, -1124, -1079, -756, -414, -474, -452])
('ECG', 1740337519114076430, [69, 279, -26, 33, 325, 298, 137, 156, 298, 245, 16, -28, 146, 183, 38, 84, 161, 60, 130, 272, 209, 199, 231, 161, 62, -48, -31, 28, -108, -197, -115, -91, -113, -130, -173, -228, -305, -233, -55, -62, -81, 9, -62, -118, 57, -4, -310, -440, -520, -544, -375, -4, 662, 970, 226, -414, 33, 493, 395, 416, 647, 737, 734, 787, 929, 1033, 1033, 1129, 1339, 1536, 1500, 1274, 1368])
('ECG', 1740337519675826342, [1560, 1382, 1315, 1505, 1447, 1177, 1228, 1618, 1633, 1096, 920, 1375, 1454, 1014, 927, 1047, 898, 855, 819, 592, 563, 602, 529, 621, 790, 780, 898, 1185, 1161, 1047, 1202, 1389, 1466, 1399, 1387, 1597, 1650, 1351, 1076, 1069, 1255, 1729, 2240, 2131, 1368, 691, 833, 1209, 1021, 756, 753, 790, 852, 780, 501, 378, 443, 380, 243, 168, 142, 183, 137, 4, -43, -180, -378, -325, -291, -452, -440, -378, -532])
('ECG', 1740337520237606772, [-640, -546, -539, -700, -763, -751, -797, -773, -727, -806, -845, -761, -715, -741, -761, -737, -725, -780, -780, -708, -684, -674, -691, -732, -720, -691, -662, -684, -768, -797, -816, -888, -949, -1076, -1161, -896, -409, -14, -38, -749, -1404, -1214, -951, -1079, -1026, -908, -1023, -1057, -951, -963, -1021, -951, -879, -925, -908, -778, -713, -688, -647, -602, -515, -493, -537, -462, -375, -387, -363, -332, -354, -317, -264, -310, -334])
('ECG', 1740337520799356684, [-284, -277, -296, -342, -469, -551, -539, -609, -710, -672, -621, -655, -645, -604, -611, -582, -486, -407, -344, -281, -236, -144, -45, 16, 120, 183, 144, 151, 219, 245, 277, 293, 226, 260, 349, 233, 349, 958, 1392, 1199, 378, -402, -192, 387, 407, 281, 366, 409, 325, 221, 243, 407, 522, 450, 330, 332, 291, 250, 409, 428, 158, 113, 257, 156, 55, 57, -110, -163, -14, -115, -315, -305, -267])
('ECG', 1740337521361137116, [-231, -178, -327, -541, -481, -366, -404, -392, -361, -426, -464, -436, -421, -496, -578, -515, -445, -467, -438, -387, -411, -467, -522, -532, -452, -469, -551, -440, -440, -621, -556, -448, -541, -539, -491, -556, -554, -544, -587, -436, -28, 436, 527, -269, -1117, -872, -469, -676, -667, -488, -647, -676, -532, -558, -558, -558, -631, -568, -551, -693, -508, -204, -546, -937, -626, -378, -539, -546, -448, -508, -544, -421, -293])
('ECG', 1740337521922887028, [-317, -342, -286, -373, -452, -334, -284, -361, -361, -308, -267, -207, -202, -308, -356, -289, -281, -325, -325, -308, -289, -293, -342, -354, -327, -349, -387, -378, -356, -363, -383, -368, -349, -402, -433, -383, -378, -450, -486, -467, -313, 134, 688, 751, -79, -932, -797, -423, -515, -554, -399, -361, -397, -373, -344, -366, -378, -356, -317, -301, -308, -298, -274, -269, -262, -264, -301, -327, -322, -322, -334, -334, -325])
('ECG', 1740337522484667458, [-330, -327, -293, -279, -308, -337, -356, -342, -310, -322, -339, -325, -308, -296, -255, -207, -248, -351, -361, -293, -284, -298, -279, -267, -260, -250, -286, -330, -296, -243, -264, -264, -197, -233, -363, -385, -315, -279, -286, -349, -416, -334, 52, 674, 1071, 541, -594, -886, -431, -363, -455, -363, -361, -373, -313, -315, -317, -257, -245, -269, -233, -175, -151, -214, -322, -305, -214, -219, -228, -166, -187, -279, -269])
('ECG', 1740337523046447888, [-224, -269, -337, -346, -322, -310, -284, -269, -332, -378, -332, -277, -262, -303, -346, -308, -260, -255, -250, -286, -358, -358, -351, -409, -423, -423, -457, -419, -392, -493, -563, -585, -599, -488, -402, -498, -566, -549, -609, -729, -816, -775, -397, 354, 963, 633, -607, -1303, -881, -597, -737, -645, -522, -546, -488, -450, -467, -423, -438, -467, -443, -515, -563, -390, -262, -363, -392, -298, -250, -216, -236, -305, -301])
('ECG', 1740337523608197800, [-269, -274, -284, -373, -510, -527, -486, -534, -587, -582, -652, -744, -715, -674, -662, -604, -578, -607, -594, -558, -534, -534, -551, -537, -544, -616, -609, -513, -517, -556, -498, -428, -397, -383, -392, -395, -366, -334, -339, -368, -363, -315, -375, -501, -248, 510, 1351, 1628, 657, -662, -645, -154, -354, -443, -231, -231, -260, -187, -168, -134, -81, -69, -55, -38, -43, -36, -38, -36, 36, 55, -16, 7, 89])
('ECG', 1740337524169947712, [19, -110, -93, -40, -93, -132, -65, -118, -366, -252, 103, -28, -255, -132, -74, -209, -269, -168, -57, -60, -74, -48, -60, -67, -86, -142, -86, -2, -4, -26, -101, -139, -98, -81, -118, -171, -149, -108, -91, -93, -154, -134, -67, -132, -190, -156, -166, -178, -190, -238, -269, -197, 190, 828, 1096, 395, -582, -568, -113, -221, -378, -231, -204, -272, -236, -226, -228, -187, -192, -166, -101, -137, -180])
('ECG', 1740337524731728144, [-146, -125, -158, -199, -190, -175, -202, -226, -224, -190, -197, -233, -243, -255, -250, -255, -334, -378, -284, -185, -243, -346, -332, -277, -260, -255, -264, -257, -255, -303, -325, -296, -308, -337, -303, -291, -337, -320, -277, -310, -325, -315, -349, -320, -260, -289, -346, -354, -303, -257, -298, -351, -334, -279, -224, -245, -342, -337, -264, -284, -325, -303, -296, -317, -303, -315, -416, -407, -60, 491, 900, 710, -202])
('ECG', 1740337525293508574, [-806, -503, -260, -370, -325, -272, -346, -325, -252, -255, -248, -221, -224, -207, -175, -166, -163, -151, -130, -120, -154, -195, -185, -175, -178, -161, -185, -243, -264, -267, -291, -286, -245, -255, -289, -272, -255, -272, -277, -257, -252, -257, -260, -236, -199, -202, -219, -211, -214, -216, -178, -161, -183, -192, -197, -214, -209, -171, -137, -156, -185, -158, -137, -175, -195, -166, -166, -171, -139, -130, -146, -154, -173])
('ECG', 1740337525855273746, [-187, -156, -139, -168, -149, -98, -146, -231, -224, -166, -154, -197, -274, -305, -60, 534, 1105, 994, 9, -698, -399, -156, -356, -330, -178, -195, -202, -134, -137, -168, -156, -149, -156, -130, -67, -33, -31, -21, -31, -72, -96, -81, -52, -55, -101, -142, -154, -166, -183, -168, -168, -228, -269, -240, -209, -199, -190, -202, -226, -240, -231, -214, -224, -214, -190, -238, -310, -289, -238, -243, -289, -301, -262])
('ECG', 1740337526417038916, [-238, -204, -195, -325, -399, -334, -342, -320, -231, -228, -267, -274, -252, -303, -426, -320, -115, -219, -344, -264, -248, -293, -277, -313, -339, -255, -151, -137, -373, -604, -385, 161, 715, 1028, 541, -448, -672, -327, -354, -440, -327, -346, -414, -354, -284, -286, -281, -224, -197, -248, -236, -142, -139, -204, -228, -226, -207, -207, -243, -248, -226, -255, -322, -332, -296, -264, -233, -231, -289, -351, -322, -260, -310])
('ECG', 1740337526978819346, [-397, -378, -327, -330, -354, -334, -286, -279, -301, -313, -325, -349, -356, -313, -260, -264, -308, -325, -313, -308, -308, -289, -272, -262, -252, -279, -310, -277, -243, -274, -313, -301, -274, -279, -305, -327, -346, -375, -404, -443, -513, -380, 211, 932, 1079, 197, -840, -693, -134, -255, -378, -192, -161, -214, -149, -103, -125, -98, -62, -89, -101, -55, -26, -36, -33, -33, -55, -72, -69, -77, -110, -144, -156])
('ECG', 1740337527540569258, [-163, -173, -187, -202, -211, -221, -248, -269, -262, -226, -211, -236, -255, -255, -260, -255, -238, -243, -257, -245, -228, -233, -243, -252, -252, -248, -262, -260, -240, -264, -267, -214, -216, -255, -260, -250, -240, -199, -171, -185, -183, -166, -195, -214, -195, -187, -195, -214, -274, -257, 43, 537, 833, 520, -301, -652, -296, -151, -296, -240, -132, -163, -190, -183, -171, -132, -137, -180, -175, -127, -101, -134, -168])
('ECG', 1740337528102319172, [-166, -158, -168, -187, -195, -187, -192, -195, -199, -233, -240, -199, -187, -219, -221, -202, -199, -211, -211, -207, -199, -202, -228, -238, -214, -199, -224, -245, -243, -243, -260, -279, -252, -207, -209, -250, -260, -226, -204, -233, -245, -207, -207, -236, -238, -226, -199, -187, -243, -257, -209, -272, -315, -207, -204, -310, -137, 351, 746, 652, -2, -544, -419, -216, -279, -236, -142, -178, -202, -158, -134, -134, -127])
('ECG', 1740337528664099602, [-108, -67, -40, -52, -67, -84, -91, -89, -108, -127, -137, -161, -202, -228, -226, -211, -216, -238, -260, -279, -279, -269, -248, -216, -240, -303, -301, -274, -284, -291, -301, -310, -303, -322, -332, -289, -325, -402, -339, -286, -330, -293, -272, -385, -407, -293, -233, -277, -361, -380, -322, -310, -351, -342, -291, -260, -317, -472, -479, -60, 674, 1283, 1045, -291, -1139, -616, -301, -505, -354, -207, -313, -284, -163])
('ECG', 1740337529225849514, [-166, -185, -156, -130, -105, -79, -81, -120, -130, -103, -105, -132, -142, -180, -211, -175, -175, -199, -144, -86, -91, -101, -84, -33, 0, -31, -38, -2, -21, -93, -134, -195, -207, 4, 50, -187, -216, -108, -151, -226, -202, -130, -139, -185, -180, -197, -224, -195, -163, -204, -180, -91, -211, -267, -81, -72, -277, -346, -195, -221, -493, -313, 498, 1310, 1589, 732, -681, -780, -33, -93, -342, -127, -86])
('ECG', 1740337529787599426, [-221, -214, -178, -96, -14, -55, -108, -98, -115, -134, -110, -84, -86, -108, -144, -168, -142, -151, -245, -260, -161, -154, -243, -291, -334, -378, -358, -363, -472, -554, -626, -758, -715, -578, -599, -604, -599, -708, -717, -575, -457, -423, -481, -421, -166, -154, -361, -298, -166, -334, -501, -385, -197, -137, -125, -38, 62, 52, 4, 62, 69, -84, 55, 657, 1209, 1298, 652, -233, -216, 277, 272, 113, 149])
('ECG', 1740337530349379856, [144, 74, 132, 293, 308, 240, 351, 370, 192, 279, 416, 171, -12, 132, 197, 130, 137, 93, 77, 243, 207, -43, -48, 40, -62, -134, -4, 127, 52, -122, -166, -60, -43, -185, -171, 21, 62, -21, -26, -4, 12, 98, 81, -149, -289, -69, 207, 113, -2, 125, 26, -296, -452, -426, -411, -501, -399, -93, -62, -245, -257, -72, 267, 814, 1298, 917, -238, -631, -81, -67, -460, -252, 31])
('ECG', 1740337530911129768, [-98, -118, 2, -40, -89, -62, -48, -9, 2, -43, -69, -43, -19, -43, -9, 28, -130, -224, -91, -40, -149, -224, -166, -28, -130, -349, -84, 260, 110, -19, 43, -65, -166, -40, 79, 40, -7, -16, -69, -91, -48, -91, -156, -118, -105, -125, -149, -211, -178, -110, -175, -202, -142, -134, -130, -74, -89, -245, -325, -197, -168, -202, 214, 925, 1199, 580, -421, -590, -163, -161, -308, -224, -252])
('ECG', 1740337531472879682, [-308, -151, -163, -342, -296, -187, -248, -291, -231, -180, -192, -262, -257, -190, -221, -279, -289, -296, -296, -298, -320, -327, -296, -279, -322, -390, -385, -325, -330, -378, -370, -330, -356, -395, -342, -269, -298, -375, -361, -342, -395, -351, -257, -313, -397, -342, -298, -279, -240, -248, -308, -392, -344, -209, -226, -296, -231, -199, -195, -154, -89, 305, 937, 1043, 231, -508, -351, -101, -190, -211, -183, -166, -84])
('ECG', 1740337532034649940, [-86, -199, -178, -31, 36, -43, -149, -168, -197, -163, -48, -9, -26, -84, -146, -156, -144, -195, -264, -134, 24, -77, -190, -173, -226, -303, -228, -161, -211, -158, -108, -226, -243, -204, -197, -171, -252, -281, -190, -161, -175, -151, -57, -55, -185, -137, 96, 96, -115, -168, -33, 26, -62, -93, -28, -50, -175, -209, -103, -33, 120, 508, 766, 337, -426, -508, -144, -163, -284, -199, -204, -303, -267])
('ECG', 1740337532596410024, [-144, -183, -289, -224, -149, -204, -221, -180, -199, -245, -202, -113, -154, -274, -325, -291, -233, -240, -286, -291, -277, -301, -346, -305, -264, -284, -286, -315, -315, -296, -342, -356, -322, -310, -313, -337, -332, -317, -387, -409, -363, -370, -409, -426, -395, -368, -409, -445, -421, -387, -402, -484, -501, -414, -390, -452, -539, -479, -19, 708, 1298, 898, -626, -1264, -544, -334, -635, -476, -293, -409, -426, -407, -517])
('ECG', 1740337533158159936, [-522, -428, -390, -395, -402, -368, -349, -387, -390, -322, -332, -455, -505, -433, -392, -455, -481, -428, -423, -491, -539, -525, -525, -575, -573, -578, -623, -541, -431, -464, -520, -491, -496, -529, -515, -501, -541, -554, -484, -452, -469, -450, -428, -464, -549, -582, -510, -445, -498, -568, -551, -517, -532, -602, -703, -619, -98, 691, 1064, 264, -970, -990, -368, -426, -578, -385, -327, -392, -370, -363, -358, -298, -216])
('ECG', 1740337533719909848, [-171, -156, -98, 0, 103, 101, -52, -139, -50, 7, -65, -134, -60, -4, -158, -214, -110, -156, -224, -190, -207, -221, -255, -385, -344, -199, -298, -363, -267, -320, -320, -332, -481, -366, -197, -238, -349, -363, -219, -248, -378, -305, -219, -269, -375, -303, -146, -202, -204, -175, -361, -440, -267, -113, 60, 628, 1011, 433, -207, -173, -187, -404, -274, -7, -7, -134, -190, -103, -57, -74, -60, -236, -277])
('ECG', 1740337534281659760, [45, 43, -238, -202, -7, -38, -226, -284, -221, -216, -260, -291, -262, -226, -274, -293, -250, -269, -303, -272, -250, -277, -301, -286, -262, -252, -252, -252, -243, -240, -277, -325, -327, -291, -272, -272, -262, -260, -269, -257, -228, -219, -228, -216, -214, -274, -305, -257, -233, -269, -298, -327, -354, -118, 438, 855, 647, -183, -737, -448, -190, -334, -346, -260, -289, -298, -252, -252, -248, -187, -187, -252, -272])
('ECG', 1740337534843440192, [-219, -125, -134, -267, -277, -178, -156, -40, -9, -395, -501, -69, 52, -113, -134, -132, -125, -93, -108, -113, -91, -134, -214, -183, -108, -154, -190, -168, -187, -214, -236, -274, -277, -260, -260, -240, -211, -219, -228, -231, -228, -187, -161, -233, -298, -255, -216, -250, -284, -284, -317, -305, -9, 493, 768, 416, -358, -669, -332, -168, -255, -224, -238, -289, -255, -238, -216, -187, -149, -113, -154, -192, -199])
('ECG', 1740337535405190104, [-173, -219, -168, 93, 55, -284, -262, 77, 139, -28, -48, 0, -74, -146, -115, -105, -161, -173, -161, -183, -166, -122, -144, -187, -178, -139, -166, -236, -233, -185, -187, -204, -204, -214, -226, -224, -204, -180, -192, -224, -195, -149, -190, -252, -277, -262, -185, -166, -289, -416, -303, 190, 708, 633, -86, -590, -327, -101, -284, -305, -197, -171, -137, -187, -272, -221, -197, -180, -79, -93, -195, -211, -40])
('ECG', 1740337535966940016, [67, -190, -378, -209, -69, 21, -9, -332, -399, -48, 67, -118, -142, -67, -125, -209, -197, -166, -173, -180, -199, -219, -183, -146, -173, -183, -168, -192, -214, -226, -250, -262, -248, -216, -190, -187, -207, -219, -197, -180, -214, -260, -286, -298, -260, -207, -248, -334, -252, 77, 450, 551, 146, -476, -582, -274, -231, -313, -211, -154, -219, -248, -236, -231, -228, -228, -195, -156, -163, -207, -262, -243, -154])
('ECG', 1740337536528720446, [-149, -250, -293, -243, -238, -289, -281, -183, -103, -156, -175, -168, -248, -216, -122, -93, -84, -192, -214, 24, 21, -240, -221, -91, -154, -199, -156, -178, -236, -209, -144, -113, -134, -171, -158, -132, -137, -175, -207, -211, -228, -202, -137, -163, -252, -264, -105, 228, 544, 501, -50, -529, -387, -130, -185, -233, -171, -171, -197, -173, -163, -175, -175, -178, -195, -202, -204, -216, -216, -207, -211, -228, -243])
('ECG', 1740337537090470358, [-252, -262, -257, -240, -236, -240, -233, -226, -233, -231, -224, -219, -211, -211, -224, -228, -219, -211, -216, -219, -216, -219, -224, -228, -209, -185, -207, -255, -260, -221, -209, -219, -211, -209, -228, -240, -236, -255, -289, -298, -289, -301, -277, -40, 397, 688, 407, -339, -650, -354, -228, -320, -274, -231, -272, -279, -257, -250, -211, -175, -211, -243, -211, -183, -195, -228, -238, -209, -214, -274, -298, -284, -281])
('ECG', 1740337537652220270, [-245, -183, -187, -221, -233, -269, -279, -260, -281, -197, -21, -57, -211, -221, -192, -243, -293, -252, -166, -158, -214, -204, -171, -207, -264, -289, -286, -255, -158, -96, -166, -221, -178, -161, -257, -330, -262, -267, -354, -69, 527, 833, 532, -224, -607, -291, -132, -370, -404, -226, -199, -252, -228, -214, -231, -224, -209, -183, -163, -199, -207, -151, -151, -236, -250, -163, -183, -267, -240, -197, -257, -315, -255])
('ECG', 1740337538213970184, [-156, -161, -236, -231, -211, -274, -301, -231, -183, -219, -233, -168, -168, -238, -195, -190, -334, -337, -216, -221, -240, -183, -185, -231, -211, -187, -216, -260, -277, -248, -216, -233, -279, -320, -289, -19, 467, 831, 561, -322, -756, -399, -226, -368, -317, -228, -279, -298, -257, -238, -233, -233, -228, -197, -180, -195, -190, -173, -207, -250, -228, -202, -233, -255, -236, -207, -204, -221, -233, -255, -260, -202, -171])
('ECG', 1740337538775750614, [-211, -221, -178, -173, -195, -190, -195, -228, -228, -192, -185, -209, -224, -224, -226, -233, -248, -257, -236, -195, -195, -233, -269, -289, -286, -279, -281, -305, -363, -392, -209, 260, 763, 855, 149, -688, -616, -248, -325, -370, -245, -238, -272, -243, -231, -228, -195, -175, -192, -199, -185, -161, -151, -156, -168, -185, -204, -207, -202, -211, -224, -219, -224, -233, -243, -250, -245, -238, -245, -252, -250, -257, -264])
('ECG', 1740337539337500526, [-238, -211, -226, -243, -231, -226, -240, -252, -255, -260, -252, -228, -204, -209, -224, -226, -233, -248, -250, -255, -267, -267, -260, -279, -339, -252, 154, 691, 934, 421, -503, -672, -269, -252, -363, -248, -211, -272, -255, -211, -202, -192, -187, -185, -166, -151, -158, -156, -158, -163, -149, -154, -187, -207, -207, -219, -238, -236, -221, -221, -233, -233, -236, -243, -236, -236, -243, -245, -233, -202, -185, -195, -197])
('ECG', 1740337539899250438, [-202, -216, -221, -214, -221, -240, -233, -202, -183, -183, -190, -195, -211, -245, -262, -250, -236, -248, -291, -344, -313, -28, 520, 992, 768, -219, -758, -378, -175, -349, -305, -211, -260, -262, -226, -228, -216, -207, -221, -199, -154, -161, -185, -171, -168, -192, -197, -190, -207, -236, -236, -219, -233, -255, -236, -228, -255, -267, -257, -257, -252, -233, -231, -238, -240, -245, -238, -204, -185, -204, -219, -219, -224])
('ECG', 1740337540461000350, [-231, -228, -224, -216, -207, -207, -219, -226, -224, -233, -248, -245, -236, -238, -269, -332, -342, -103, 404, 859, 737, -110, -698, -414, -178, -332, -320, -216, -260, -284, -233, -211, -219, -219, -214, -204, -197, -195, -192, -185, -192, -202, -204, -209, -224, -231, -233, -243, -248, -248, -250, -250, -248, -252, -257, -250, -240, -240, -243, -236, -226, -216, -211, -211, -214, -221, -236, -231, -209, -197, -209, -224, -224])
('ECG', 1740337541022750262, [-221, -219, -221, -224, -211, -207, -221, -221, -221, -243, -262, -274, -303, -337, -233, 146, 667, 859, 260, -582, -597, -224, -284, -385, -267, -233, -267, -240, -219, -214, -204, -207, -224, -226, -190, -151, -158, -187, -202, -211, -211, -202, -207, -216, -221, -219, -221, -236, -240, -228, -238, -260, -243, -224, -221, -204, -202, -226, -219, -187, -190, -211, -231, -238, -216, -190, -195, -214, -204, -199, -219, -226, -199])
('ECG', 1740337541584500176, [-185, -207, -216, -192, -197, -236, -245, -233, -240, -255, -279, -315, -291, -55, 416, 843, 681, -178, -713, -399, -163, -303, -303, -214, -240, -248, -214, -236, -255, -224, -192, -180, -173, -163, -163, -171, -168, -173, -202, -221, -209, -180, -185, -216, -221, -199, -197, -228, -250, -238, -211, -199, -202, -195, -187, -197, -199, -187, -180, -199, -207, -187, -187, -207, -202, -197, -216, -219, -211, -221, -224, -211, -187])
('ECG', 1740337542146250088, [-171, -187, -209, -207, -228, -252, -238, -231, -257, -262, -262, -325, -286, 55, 556, 828, 436, -426, -681, -298, -228, -356, -269, -219, -269, -250, -224, -245, -231, -192, -199, -209, -178, -163, -190, -199, -183, -183, -204, -207, -199, -214, -233, -228, -221, -233, -245, -236, -216, -209, -214, -214, -219, -226, -214, -199, -209, -219, -190, -161, -187, -214, -202, -207, -226, -228, -219, -214, -202, -192, -204, -207, -185])
('ECG', 1740337542708000000, [-171, -187, -214, -214, -199, -211, -228, -224, -221, -224, -243, -301, -298, -48, 433, 819, 607, -226, -676, -356, -192, -346, -301, -204, -250, -262, -224, -228, -224, -192, -185, -185, -180, -180, -180, -185, -190, -185, -187, -199, -211, -224, -226, -219, -221, -231, -233, -240, -238, -221, -211, -214, -224, -211, -197, -209, -221, -211, -202, -199, -202, -199, -190, -197, -214, -224, -228, -219, -202, -207, -221, -226, -207])
('ECG', 1740337543269749912, [-166, -158, -197, -209, -199, -216, -245, -243, -224, -224, -238, -262, -301, -231, 108, 592, 804, 320, -484, -599, -238, -233, -351, -269, -219, -248, -245, -211, -195, -202, -209, -204, -192, -168, -161, -183, -195, -168, -151, -180, -211, -211, -202, -199, -209, -224, -231, -233, -240, -245, -216, -183, -187, -224, -243, -209, -161, -175, -207, -185, -168, -187, -214, -214, -199, -204, -216, -199, -183, -204, -224, -221, -214])
('ECG', 1740337543831499824, [-197, -178, -185, -199, -180, -166, -197, -240, -255, -248, -245, -240, -238, -281, -277, -12, 474, 821, 532, -310, -657, -305, -199, -334, -250, -204, -281, -262, -207, -199, -195, -180, -180, -190, -192, -183, -175, -161, -149, -161, -199, -226, -216, -214, -238, -240, -211, -207, -226, -226, -228, -245, -250, -238, -214, -211, -226, -221, -211, -214, -211, -195, -180, -178, -195, -224, -233, -224, -214, -207, -214, -219, -207])
('ECG', 1740337544393249736, [-204, -209, -197, -187, -202, -211, -204, -192, -204, -240, -243, -209, -211, -248, -272, -305, -264, 55, 563, 867, 491, -378, -672, -308, -216, -356, -286, -214, -250, -240, -209, -207, -197, -187, -190, -190, -192, -180, -158, -151, -171, -195, -195, -180, -195, -224, -233, -224, -214, -211, -216, -228, -238, -240, -228, -221, -238, -243, -214, -178, -173, -195, -202, -192, -197, -219, -226, -214, -197, -187, -190, -202, -209])
('ECG', 1740337544954999650, [-221, -224, -216, -219, -214, -185, -168, -180, -187, -202, -226, -233, -226, -226, -228, -243, -291, -320, -151, 274, 746, 835, 151, -628, -529, -183, -281, -344, -214, -202, -248, -221, -202, -214, -207, -195, -195, -187, -166, -144, -144, -154, -156, -168, -192, -209, -219, -221, -202, -192, -228, -240, -199, -197, -233, -238, -228, -233, -228, -214, -214, -207, -180, -175, -190, -190, -187, -202, -207, -199, -192, -195, -199])
('ECG', 1740337545516749562, [-190, -195, -214, -214, -204, -199, -183, -161, -171, -195, -197, -195, -211, -226, -219, -199, -202, -228, -272, -310, -178, 233, 713, 838, 216, -563, -520, -173, -255, -334, -226, -219, -267, -252, -221, -180, -158, -183, -183, -154, -161, -173, -161, -168, -187, -178, -163, -173, -197, -207, -195, -197, -211, -224, -238, -248, -228, -211, -236, -240, -207, -190, -204, -216, -226, -219, -180, -166, -192, -211, -207, -190, -185])
('ECG', 1740337546078499474, [-202, -214, -207, -204, -216, -211, -197, -207, -209, -175, -163, -187, -199, -195, -197, -204, -216, -224, -204, -195, -216, -231, -262, -293, -122, 337, 806, 766, -19, -655, -423, -156, -291, -301, -202, -231, -245, -204, -204, -209, -180, -180, -199, -173, -132, -139, -161, -158, -156, -173, -185, -178, -183, -207, -214, -214, -214, -207, -214, -224, -219, -231, -243, -228, -209, -199, -202, -209, -199, -183, -190, -195, -185])
('ECG', 1740337546640249386, [-185, -202, -192, -180, -197, -197, -192, -207, -216, -216, -216, -204, -183, -183, -192, -183, -171, -175, -173, -175, -207, -238, -228, -199, -207, -224, -211, -245, -293, -113, 337, 780, 751, -7, -652, -431, -142, -267, -296, -199, -236, -262, -216, -202, -199, -195, -204, -180, -149, -149, -163, -161, -144, -144, -173, -195, -195, -199, -214, -209, -199, -209, -226, -228, -214, -209, -226, -236, -233, -224, -214, -209, -204])
('ECG', 1740337547201999298, [-197, -197, -190, -180, -178, -185, -197, -209, -211, -204, -195, -199, -207, -192, -180, -192, -207, -207, -214, -228, -219, -183, -163, -163, -163, -168, -192, -214, -221, -226, -228, -216, -211, -240, -274, -245, -7, 464, 857, 619, -236, -655, -330, -185, -320, -262, -190, -240, -248, -214, -211, -209, -192, -175, -166, -161, -156, -158, -163, -151, -154, -180, -197, -199, -195, -192, -197, -211, -228, -236, -226, -221, -233])
('ECG', 1740337547763749210, [-245, -233, -224, -211, -199, -214, -226, -204, -185, -190, -195, -204, -207, -190, -183, -190, -195, -199, -211, -219, -204, -195, -204, -221, -224, -207, -195, -197, -199, -187, -175, -175, -187, -195, -197, -209, -224, -214, -199, -204, -211, -233, -298, -269, 28, 517, 867, 575, -272, -628, -293, -190, -342, -277, -195, -243, -245, -209, -204, -199, -187, -187, -185, -173, -158, -154, -166, -173, -156, -146, -171, -187, -185])
('ECG', 1740337548325468606, [-202, -228, -228, -228, -231, -228, -236, -233, -226, -236, -226, -204, -207, -214, -214, -219, -207, -185, -187, -199, -197, -202, -209, -199, -204, -214, -204, -199, -207, -202, -209, -224, -219, -211, -211, -204, -192, -178, -173, -187, -192, -180, -195, -238, -240, -216, -211, -214, -236, -301, -267, 50, 551, 888, 578, -308, -674, -301, -185, -339, -267, -199, -252, -250, -216, -214, -195, -173, -171, -171, -168, -156, -149])
('ECG', 1740337548887218518, [-161, -175, -166, -156, -175, -192, -183, -195, -211, -204, -211, -238, -255, -238, -211, -228, -257, -243, -224, -228, -236, -226, -216, -197, -190, -199, -199, -195, -209, -216, -216, -214, -197, -180, -195, -214, -211, -207, -202, -202, -207, -214, -207, -195, -178, -166, -178, -187, -185, -195, -214, -216, -209, -209, -224, -262, -303, -171, 257, 780, 956, 325, -556, -582, -204, -252, -334, -204, -185, -243, -211, -178, -190])
('ECG', 1740337549448968430, [-192, -187, -180, -161, -134, -134, -146, -144, -142, -139, -137, -158, -190, -183, -163, -175, -204, -219, -226, -216, -197, -202, -214, -216, -219, -224, -228, -221, -195, -175, -173, -180, -178, -178, -180, -180, -192, -207, -195, -180, -171, -163, -185, -207, -190, -175, -199, -216, -202, -168, -151, -161, -168, -163, -163, -178, -199, -219, -209, -178, -175, -190, -207, -267, -291, -48, 455, 905, 792, -52, -650, -363, -127])
('ECG', 1740337550010718342, [-298, -296, -185, -224, -248, -204, -183, -190, -195, -178, -149, -151, -156, -142, -142, -156, -146, -122, -127, -163, -183, -183, -183, -190, -204, -224, -228, -219, -211, -211, -211, -211, -221, -226, -219, -202, -197, -199, -202, -192, -175, -171, -178, -185, -197, -197, -185, -178, -183, -192, -195, -197, -202, -197, -187, -180, -178, -190, -204, -195, -173, -154, -144, -154, -173, -190, -211, -214, -199, -197, -204, -233, -284])
('ECG', 1740337550572468254, [-231, 77, 575, 922, 585, -293, -614, -260, -163, -301, -248, -197, -238, -228, -195, -197, -195, -178, -171, -163, -154, -149, -144, -139, -137, -142, -149, -158, -171, -178, -183, -190, -197, -204, -209, -214, -216, -221, -226, -228, -224, -219, -214, -209, -214, -224, -216, -192, -190, -211, -195, -149, -151, -197, -219, -204, -195, -211, -221, -207, -216, -226, -190, -180, -214, -209, -187, -199, -197, -178, -195, -226, -211])
('ECG', 1740337551134218166, [-158, -146, -197, -221, -207, -209, -216, -240, -298, -284, -4, 496, 884, 633, -231, -628, -274, -149, -322, -274, -190, -252, -269, -238, -243, -214, -142, -144, -185, -183, -175, -180, -163, -166, -180, -163, -156, -171, -183, -190, -187, -187, -202, -216, -224, -224, -228, -233, -224, -211, -211, -214, -216, -214, -207, -221, -240, -214, -183, -185, -175, -168, -175, -187, -224, -236, -209, -190, -171, -161, -166, -192, -228])
('ECG', 1740337551695962994, [-216, -175, -173, -245, -221, -52, -60, -183, -144, -96, -178, -228, -166, -98, -108, -158, -226, -209, 28, 469, 903, 840, 84, -488, -284, -69, -197, -202, -101, -113, -118, -74, -72, -96, -96, -86, -48, -21, -43, -62, -65, -62, -57, -65, -81, -105, -122, -130, -134, -149, -166, -183, -197, -199, -199, -202, -197, -199, -219, -224, -204, -204, -226, -233, -204, -175, -178, -195, -209, -224, -224, -221, -233])
('ECG', 1740337552257687474, [-224, -209, -233, -267, -260, -231, -226, -245, -252, -228, -211, -233, -279, -279, -199, -171, -257, -303, -257, -202, -183, -226, -298, -346, -334, -125, 375, 886, 792, -91, -720, -462, -224, -344, -322, -226, -264, -277, -228, -216, -219, -221, -221, -211, -185, -156, -151, -166, -171, -163, -173, -195, -202, -195, -202, -231, -240, -224, -216, -231, -284, -332, -310, -272, -272, -274, -279, -277, -243, -238, -289, -284, -221])
('ECG', 1740337552819437386, [-214, -255, -255, -214, -183, -197, -243, -281, -272, -202, -161, -207, -231, -199, -211, -245, -255, -264, -248, -180, -149, -190, -211, -202, -236, -260, -248, -252, -262, -236, -248, -361, -317, 144, 806, 1194, 710, -436, -811, -351, -267, -407, -298, -240, -286, -252, -211, -204, -202, -214, -202, -154, -137, -146, -130, -110, -127, -151, -132, -98, -115, -168, -195, -187, -190, -211, -221, -231, -255, -281, -310, -310, -264])
('ECG', 1740337553381156780, [-248, -279, -291, -264, -255, -274, -272, -250, -236, -214, -202, -216, -224, -211, -202, -199, -214, -224, -197, -168, -168, -187, -183, -158, -146, -137, -137, -156, -156, -142, -154, -149, -110, -103, -115, -113, -151, -262, -240, 183, 905, 1430, 1023, -248, -792, -238, -33, -269, -209, -89, -146, -161, -108, -105, -118, -93, -72, -69, -62, -40, -28, -28, -19, -26, -52, -67, -77, -81, -96, -132, -154, -154, -185])
('ECG', 1740337553942906692, [-231, -228, -199, -207, -224, -219, -216, -228, -231, -214, -199, -204, -211, -228, -221, -185, -180, -192, -183, -171, -171, -185, -197, -202, -202, -199, -190, -192, -204, -214, -211, -202, -173, -149, -146, -166, -197, -224, -228, -211, -185, -180, -248, -370, -322, 180, 949, 1382, 881, -289, -717, -255, -154, -349, -255, -168, -233, -233, -183, -175, -185, -168, -156, -151, -134, -118, -101, -89, -96, -108, -108, -118, -132])
('ECG', 1740337554504626086, [-139, -146, -163, -180, -197, -219, -233, -243, -248, -245, -240, -238, -231, -221, -219, -233, -248, -236, -207, -202, -207, -190, -180, -195, -199, -195, -204, -209, -202, -204, -214, -207, -190, -195, -216, -209, -180, -166, -168, -175, -178, -175, -195, -216, -207, -195, -197, -197, -202, -257, -332, -209, 260, 833, 1002, 325, -570, -558, -161, -245, -358, -236, -199, -240, -216, -197, -209, -202, -190, -185, -171, -161, -156])
('ECG', 1740337555066376000, [-149, -146, -146, -151, -154, -161, -171, -175, -180, -192, -204, -216, -224, -228, -233, -238, -238, -233, -226, -221, -221, -221, -214, -214, -214, -209, -207, -204, -202, -199, -199, -197, -197, -197, -192, -192, -192, -192, -190, -187, -187, -190, -187, -178, -166, -166, -173, -175, -180, -202, -219, -214, -209, -209, -211, -233, -296, -296, -21, 498, 888, 633, -240, -686, -351, -185, -320, -269, -190, -231, -231, -192, -195])
('ECG', 1740337555628095394, [-195, -173, -166, -161, -149, -142, -139, -134, -132, -137, -144, -151, -161, -171, -175, -175, -180, -195, -202, -209, -216, -221, -221, -221, -216, -204, -199, -204, -207, -199, -195, -192, -190, -192, -190, -190, -192, -197, -197, -199, -202, -204, -204, -207, -204, -202, -204, -202, -192, -180, -168, -166, -171, -171, -180, -204, -214, -207, -202, -202, -207, -238, -301, -250, 101, 633, 927, 481, -411, -626, -245, -204, -325])
('ECG', 1740337556189845306, [-233, -190, -236, -214, -183, -195, -195, -180, -171, -161, -151, -144, -137, -134, -137, -142, -151, -163, -173, -173, -178, -183, -192, -199, -207, -214, -221, -224, -221, -219, -216, -211, -207, -204, -199, -197, -195, -187, -183, -183, -187, -190, -187, -183, -187, -197, -199, -197, -199, -202, -199, -199, -199, -195, -183, -180, -183, -185, -190, -209, -233, -236, -224, -216, -216, -233, -296, -315, -89, 402, 862, 761, -86])
('ECG', 1740337556751564700, [-705, -440, -190, -327, -320, -219, -250, -262, -219, -209, -211, -197, -192, -190, -175, -161, -156, -149, -149, -158, -166, -173, -190, -197, -190, -195, -211, -221, -224, -240, -255, -255, -248, -255, -260, -257, -252, -243, -231, -228, -233, -231, -226, -226, -221, -214, -214, -224, -228, -224, -226, -231, -226, -224, -228, -228, -221, -209, -202, -204, -209, -204, -211, -233, -243, -238, -231, -228, -236, -272, -344, -291, 81])
('ECG', 1740337557313314612, [660, 1018, 585, -426, -737, -303, -214, -356, -262, -199, -250, -228, -192, -202, -195, -171, -163, -161, -146, -137, -130, -122, -122, -132, -139, -144, -151, -158, -163, -168, -180, -195, -204, -214, -224, -226, -226, -226, -226, -224, -219, -214, -207, -199, -195, -192, -187, -185, -185, -183, -180, -178, -180, -183, -185, -185, -185, -185, -190, -187, -180, -168, -156, -156, -161, -158, -166, -190, -202, -197, -192, -192, -197])
('ECG', 1740337557875034006, [-231, -305, -272, 81, 662, 1057, 708, -269, -660, -272, -161, -325, -255, -178, -228, -221, -183, -187, -187, -168, -161, -156, -142, -134, -130, -125, -122, -127, -132, -137, -144, -149, -156, -163, -173, -187, -199, -209, -216, -224, -224, -219, -216, -214, -209, -204, -199, -197, -195, -192, -190, -187, -185, -185, -185, -185, -185, -185, -185, -187, -187, -190, -195, -190, -183, -175, -163, -156, -161, -166, -168, -185, -204])
('ECG', 1740337558436753402, [-207, -202, -199, -197, -211, -267, -315, -144, 332, 855, 927, 190, -594, -481, -151, -267, -325, -207, -211, -248, -209, -192, -202, -187, -171, -168, -158, -149, -142, -134, -132, -132, -137, -144, -151, -156, -161, -168, -180, -192, -204, -221, -236, -238, -226, -219, -221, -221, -216, -214, -211, -207, -204, -202, -199, -197, -197, -192, -190, -192, -192, -195, -197, -199, -202, -202, -209, -207, -199, -199, -197, -185, -175])
('ECG', 1740337558998503314, [-173, -175, -173, -175, -195, -216, -221, -216, -211, -211, -216, -252, -322, -274, 74, 626, 970, 578, -349, -660, -279, -202, -351, -272, -207, -260, -245, -204, -209, -209, -192, -187, -185, -175, -168, -166, -163, -156, -149, -154, -168, -178, -178, -183, -199, -207, -211, -224, -236, -252, -267, -267, -250, -228, -226, -233, -233, -226, -226, -226, -226, -221, -211, -211, -209, -202, -207, -216, -219, -226, -228, -216, -202])
('ECG', 1740337559560222708, [-195, -197, -211, -228, -228, -224, -226, -221, -209, -195, -175, -166, -173, -173, -197, -250, -252, -199, -192, -219, -238, -279, -327, -204, 248, 847, 1033, 293, -638, -585, -166, -264, -358, -226, -236, -301, -245, -209, -224, -204, -168, -166, -173, -163, -151, -156, -166, -166, -163, -161, -163, -173, -187, -192, -211, -207, -178, -195, -238, -238, -233, -260, -269, -248, -236, -226, -209, -207, -216, -216, -216, -219, -226])
('ECG', 1740337560121972620, [-219, -185, -158, -183, -214, -209, -204, -211, -216, -211, -202, -199, -209, -216, -219, -214, -197, -185, -195, -199, -180, -171, -185, -195, -187, -171, -173, -202, -221, -209, -199, -209, -248, -308, -248, 137, 739, 1093, 619, -378, -640, -228, -185, -334, -240, -190, -248, -228, -192, -199, -192, -173, -173, -166, -151, -142, -137, -134, -130, -132, -139, -144, -154, -166, -168, -171, -183, -197, -209, -219, -224, -224, -231])
('ECG', 1740337560683692014, [-238, -233, -226, -221, -207, -202, -204, -202, -195, -195, -190, -187, -185, -187, -187, -187, -187, -190, -190, -192, -195, -197, -197, -199, -199, -197, -197, -199, -202, -199, -197, -197, -197, -190, -178, -168, -171, -173, -166, -171, -187, -202, -202, -195, -197, -199, -216, -277, -315, -115, 390, 905, 920, 137, -597, -438, -149, -284, -317, -209, -224, -250, -209, -199, -207, -190, -178, -175, -166, -156, -151, -146, -142])
('ECG', 1740337561245411410, [-139, -144, -151, -158, -163, -168, -175, -180, -183, -192, -209, -224, -226, -228, -228, -226, -221, -216, -211, -207, -199, -197, -197, -195, -192, -190, -190, -187, -183, -185, -187, -187, -187, -190, -195, -197, -195, -190, -192, -199, -202, -202, -202, -197, -197, -199, -202, -202, -197, -199, -199, -190, -178, -178, -185, -183, -178, -187, -207, -221, -221, -216, -219, -221, -248, -315, -277, 67, 619, 980, 628, -293, -657])
('ECG', 1740337561807161322, [-303, -202, -351, -279, -204, -255, -252, -214, -216, -219, -197, -187, -180, -168, -161, -154, -146, -144, -151, -156, -166, -171, -175, -183, -192, -199, -211, -226, -233, -231, -228, -240, -243, -233, -233, -236, -233, -228, -231, -228, -221, -214, -211, -214, -209, -204, -207, -209, -204, -207, -216, -214, -207, -214, -219, -211, -204, -207, -207, -207, -209, -204, -197, -209, -216, -209, -207, -219, -219, -211, -214, -207, -190])
('ECG', 1740337562368880716, [-185, -190, -187, -192, -214, -226, -221, -219, -221, -233, -286, -342, -175, 315, 874, 1009, 279, -623, -585, -199, -281, -354, -233, -231, -267, -224, -207, -221, -207, -187, -180, -171, -161, -161, -151, -132, -132, -142, -144, -151, -163, -171, -178, -187, -199, -211, -219, -226, -233, -236, -236, -240, -248, -248, -245, -236, -219, -207, -211, -211, -202, -199, -199, -197, -192, -192, -195, -211, -209, -175, -168, -202, -209])
('ECG', 1740337562930615370, [-185, -183, -207, -204, -178, -178, -199, -199, -190, -192, -195, -197, -199, -187, -166, -156, -161, -163, -158, -158, -180, -197, -192, -180, -183, -192, -214, -264, -305, -130, 370, 951, 1081, 330, -568, -515, -144, -250, -325, -202, -202, -243, -204, -187, -192, -175, -168, -158, -137, -125, -125, -118, -108, -103, -105, -113, -125, -142, -154, -158, -163, -166, -168, -180, -204, -238, -260, -252, -224, -199, -209, -231, -248])
('ECG', 1740337563492350022, [-243, -228, -209, -190, -192, -204, -214, -214, -183, -168, -214, -233, -195, -192, -221, -221, -214, -214, -199, -202, -224, -209, -190, -221, -245, -238, -216, -199, -202, -207, -209, -204, -207, -207, -180, -163, -192, -224, -231, -224, -209, -192, -183, -219, -313, -334, -86, 438, 949, 896, 55, -607, -395, -180, -334, -330, -243, -281, -262, -192, -204, -228, -228, -214, -185, -175, -175, -146, -120, -122, -137, -125, -105])
('ECG', 1740337564054069416, [-105, -113, -110, -108, -115, -125, -134, -142, -149, -154, -149, -142, -139, -139, -130, -120, -113, -103, -91, -84, -86, -84, -77, -77, -79, -86, -96, -101, -115, -144, -161, -171, -190, -211, -219, -216, -214, -216, -221, -221, -214, -211, -219, -226, -221, -219, -221, -211, -190, -180, -183, -178, -171, -187, -214, -221, -216, -211, -216, -226, -257, -325, -284, 74, 645, 1035, 691, -286, -696, -322, -211, -368, -291])
('ECG', 1740337564615788812, [-211, -264, -252, -204, -214, -221, -199, -190, -187, -180, -173, -161, -151, -154, -161, -163, -178, -187, -185, -197, -211, -216, -226, -245, -248, -248, -257, -264, -260, -255, -255, -252, -248, -248, -240, -233, -231, -228, -233, -236, -224, -209, -209, -207, -195, -199, -221, -238, -245, -231, -204, -211, -226, -219, -211, -202, -192, -204, -211, -211, -219, -224, -211, -207, -209, -204, -192, -187, -185, -183, -180, -187, -204])
('ECG', 1740337565177538724, [-211, -207, -202, -199, -204, -252, -322, -202, 267, 876, 1146, 534, -479, -621, -202, -226, -344, -224, -197, -248, -214, -183, -192, -183, -166, -166, -154, -139, -132, -130, -127, -122, -122, -130, -139, -154, -161, -166, -178, -187, -195, -204, -226, -233, -228, -236, -252, -257, -252, -233, -207, -199, -207, -202, -197, -202, -199, -192, -190, -187, -187, -192, -195, -192, -192, -195, -195, -195, -202, -207, -202, -204, -207])
('ECG', 1740337565739258118, [-199, -195, -195, -197, -197, -197, -197, -195, -195, -195, -197, -204, -197, -171, -163, -183, -180, -146, -142, -185, -207, -197, -195, -197, -195, -221, -296, -277, 48, 609, 1047, 835, -89, -628, -320, -156, -327, -289, -190, -231, -231, -195, -233, -257, -216, -173, -151, -146, -149, -137, -120, -118, -144, -171, -166, -144, -151, -168, -171, -178, -192, -207, -219, -226, -228, -231, -231, -231, -238, -243, -231, -219, -221])
('ECG', 1740337566300977512, [-224, -219, -211, -207, -209, -211, -211, -207, -202, -202, -204, -209, -207, -207, -209, -214, -216, -216, -216, -216, -214, -211, -216, -221, -214, -209, -214, -216, -209, -209, -211, -209, -209, -216, -211, -192, -180, -180, -180, -183, -192, -209, -216, -216, -219, -219, -216, -228, -291, -325, -113, 402, 934, 970, 178, -614, -481, -171, -305, -356, -236, -245, -274, -233, -219, -231, -211, -195, -195, -183, -173, -168, -156])
('ECG', 1740337566862696906, [-149, -154, -156, -156, -171, -183, -185, -187, -197, -207, -219, -236, -245, -250, -252, -250, -252, -260, -260, -252, -243, -238, -233, -228, -226, -221, -219, -211, -207, -207, -204, -204, -209, -211, -207, -202, -209, -211, -207, -207, -207, -207, -209, -211, -209, -209, -209, -207, -209, -209, -207, -204, -204, -204, -202, -195, -187, -175, -171, -173, -166, -166, -185, -202, -204, -202, -199, -197, -211, -269, -320, -146, 351])
('ECG', 1740337567424446818, [920, 1071, 354, -561, -541, -163, -255, -344, -221, -214, -257, -219, -192, -202, -187, -171, -166, -156, -142, -137, -130, -122, -115, -118, -125, -134, -144, -151, -156, -168, -183, -195, -207, -219, -226, -231, -233, -231, -226, -221, -219, -214, -209, -207, -202, -197, -192, -187, -183, -180, -180, -178, -178, -178, -175, -178, -180, -178, -178, -180, -180, -180, -183, -183, -180, -180, -178, -178, -178, -175, -175, -178, -175])
('ECG', 1740337567986166212, [-175, -175, -173, -173, -171, -166, -154, -146, -146, -144, -139, -149, -168, -183, -183, -178, -175, -178, -192, -252, -291, -98, 397, 927, 1011, 291, -527, -460, -137, -255, -325, -204, -207, -245, -204, -187, -199, -185, -166, -163, -156, -142, -134, -127, -122, -118, -120, -127, -137, -146, -154, -158, -168, -178, -190, -202, -214, -219, -224, -228, -226, -224, -219, -214, -209, -204, -202, -199, -192, -190, -187, -180, -178])
('ECG', 1740337568547885608, [-178, -178, -178, -175, -175, -178, -178, -175, -178, -180, -180, -180, -180, -183, -183, -180, -180, -183, -183, -180, -180, -180, -178, -175, -175, -175, -175, -173, -173, -173, -175, -173, -161, -149, -144, -146, -142, -142, -161, -178, -185, -183, -178, -175, -185, -216, -277, -216, 139, 676, 1018, 664, -236, -580, -245, -175, -330, -257, -190, -240, -231, -190, -192, -187, -168, -168, -168, -156, -142, -134, -130, -130, -127])
('ECG', 1740337569109605002, [-125, -134, -149, -151, -156, -171, -185, -192, -202, -214, -219, -221, -226, -228, -233, -231, -221, -216, -214, -207, -204, -207, -199, -190, -190, -192, -192, -190, -190, -190, -190, -190, -192, -195, -192, -187, -192, -197, -195, -195, -199, -202, -199, -197, -197, -195, -192, -192, -197, -199, -195, -192, -195, -199, -197, -190, -183, -185, -190, -180, -163, -158, -166, -163, -158, -168, -183, -195, -204, -199, -190, -190, -219])
('ECG', 1740337569671339656, [-286, -281, 12, 558, 1016, 869, -43, -676, -390, -161, -327, -305, -197, -238, -252, -202, -197, -202, -180, -168, -168, -158, -146, -137, -127, -118, -115, -120, -130, -142, -154, -161, -166, -178, -187, -195, -204, -216, -228, -236, -238, -236, -231, -226, -224, -221, -221, -219, -209, -202, -195, -187, -185, -185, -183, -183, -183, -183, -183, -183, -183, -183, -185, -185, -187, -185, -185, -185, -187, -185, -183, -185, -187])
('ECG', 1740337570233074308, [-183, -178, -180, -180, -180, -180, -175, -171, -175, -178, -168, -151, -142, -146, -146, -137, -144, -158, -163, -168, -175, -173, -171, -195, -264, -281, -21, 525, 1035, 994, 132, -607, -399, -125, -281, -298, -180, -207, -233, -187, -178, -187, -166, -151, -146, -132, -113, -105, -103, -93, -89, -101, -113, -115, -120, -122, -127, -142, -163, -173, -187, -199, -202, -204, -209, -202, -195, -195, -192, -185, -178, -180, -195])
('ECG', 1740337570794793702, [-197, -185, -178, -171, -156, -168, -195, -185, -163, -168, -175, -168, -168, -180, -190, -187, -180, -168, -158, -175, -207, -202, -178, -185, -195, -183, -185, -199, -192, -180, -199, -221, -219, -209, -204, -190, -190, -204, -202, -197, -216, -245, -255, -250, -250, -255, -264, -310, -358, -207, 260, 814, 1021, 399, -551, -640, -260, -301, -383, -262, -274, -330, -245, -192, -221, -214, -173, -161, -154, -144, -137, -118, -91])
('ECG', 1740337571356513096, [-86, -96, -93, -96, -98, -98, -103, -113, -122, -134, -154, -173, -175, -180, -197, -216, -219, -202, -192, -190, -187, -190, -199, -202, -187, -190, -195, -185, -175, -183, -185, -178, -175, -183, -190, -190, -190, -207, -226, -221, -204, -202, -211, -214, -209, -228, -248, -236, -219, -216, -216, -197, -161, -161, -202, -209, -183, -175, -185, -192, -209, -202, -168, -173, -216, -214, -207, -279, -267, 103, 710, 1100, 722])
('ECG', 1740337571918232492, [-274, -645, -231, -185, -431, -334, -197, -240, -238, -185, -183, -183, -163, -156, -154, -158, -158, -142, -120, -118, -115, -115, -125, -134, -146, -161, -178, -195, -202, -219, -245, -262, -264, -267, -267, -264, -257, -250, -250, -250, -243, -236, -228, -221, -214, -211, -207, -202, -192, -178, -173, -187, -207, -199, -187, -192, -195, -190, -190, -192, -195, -195, -187, -185, -187, -185, -178, -173, -173, -173, -163, -149, -139])
('ECG', 1740337572479951886, [-139, -134, -134, -156, -175, -178, -173, -173, -178, -180, -211, -267, -139, 334, 932, 1177, 575, -395, -515, -134, -204, -334, -211, -168, -207, -166, -139, -168, -161, -132, -127, -130, -120, -110, -105, -98, -91, -86, -84, -91, -101, -105, -113, -122, -134, -149, -166, -178, -190, -197, -199, -197, -195, -195, -192, -192, -190, -187, -187, -185, -183, -183, -180, -175, -173, -180, -187, -192, -192, -178, -146, -120, -137])
('ECG', 1740337573041671280, [-168, -168, -168, -178, -178, -173, -175, -175, -171, -173, -178, -171, -158, -149, -142, -142, -139, -137, -151, -173, -180, -175, -171, -168, -173, -197, -267, -277, -2, 551, 1043, 944, 69, -597, -366, -125, -286, -296, -187, -219, -238, -192, -183, -195, -180, -171, -168, -154, -142, -134, -127, -120, -118, -120, -122, -127, -139, -151, -154, -163, -183, -202, -211, -224, -240, -248, -243, -245, -250, -240, -224, -224, -228])
('ECG', 1740337573603390674, [-224, -214, -211, -216, -214, -204, -197, -199, -202, -197, -192, -199, -199, -192, -192, -197, -195, -195, -199, -202, -197, -195, -199, -204, -199, -195, -195, -195, -187, -190, -202, -199, -180, -171, -171, -168, -166, -180, -202, -207, -192, -185, -187, -195, -226, -305, -296, 26, 614, 1091, 896, -81, -698, -375, -158, -332, -305, -202, -240, -248, -199, -197, -199, -178, -168, -168, -149, -130, -125, -125, -120, -115, -113])
('ECG', 1740337574165084638, [-115, -125, -134, -139, -144, -158, -180, -197, -207, -214, -226, -236, -243, -245, -243, -236, -228, -224, -224, -219, -209, -207, -204, -202, -195, -187, -183, -180, -183, -187, -185, -175, -175, -185, -187, -187, -190, -190, -187, -190, -190, -192, -195, -190, -183, -183, -185, -187, -185, -180, -180, -185, -180, -166, -156, -156, -156, -146, -146, -168, -185, -183, -175, -173, -175, -185, -226, -298, -216, 219, 840, 1204, 727])
('ECG', 1740337574726829462, [-330, -657, -238, -178, -342, -250, -183, -236, -219, -180, -190, -185, -158, -149, -146, -134, -120, -110, -103, -101, -98, -96, -101, -110, -120, -127, -137, -146, -163, -180, -195, -209, -216, -221, -221, -216, -214, -211, -207, -202, -197, -190, -187, -187, -183, -178, -171, -168, -163, -163, -161, -161, -161, -161, -161, -163, -166, -166, -163, -163, -166, -166, -166, -163, -166, -166, -166, -166, -166, -163, -161, -161, -163])
('ECG', 1740337575288543772, [-163, -166, -163, -161, -163, -158, -149, -137, -132, -132, -130, -130, -146, -163, -171, -166, -163, -163, -171, -207, -274, -207, 183, 758, 1122, 749, -199, -570, -226, -154, -317, -245, -175, -226, -216, -175, -183, -180, -161, -154, -146, -134, -127, -120, -108, -101, -98, -98, -101, -113, -120, -127, -132, -144, -158, -173, -185, -195, -199, -204, -207, -204, -202, -197, -190, -187, -185, -180, -173, -173, -171, -166, -161])
('ECG', 1740337575850258080, [-161, -158, -158, -158, -158, -161, -158, -161, -168, -171, -171, -168, -173, -178, -173, -168, -171, -175, -175, -173, -173, -175, -175, -171, -171, -171, -171, -173, -178, -178, -173, -168, -166, -171, -175, -175, -166, -154, -142, -134, -139, -142, -149, -166, -175, -180, -185, -185, -180, -187, -236, -291, -154, 303, 869, 1091, 481, -464, -575, -197, -233, -349, -238, -209, -255, -224, -192, -202, -197, -180, -168, -158, -154])
('ECG', 1740337576411972388, [-146, -137, -125, -118, -115, -120, -127, -134, -142, -149, -158, -173, -187, -195, -207, -221, -231, -231, -231, -236, -233, -219, -211, -214, -211, -209, -211, -209, -197, -187, -190, -190, -180, -175, -178, -175, -178, -187, -192, -190, -190, -185, -180, -187, -192, -187, -180, -185, -195, -197, -190, -187, -192, -185, -178, -175, -173, -171, -173, -175, -180, -175, -171, -173, -161, -142, -142, -146, -134, -137, -156, -166, -171])
('ECG', 1740337576973676522, [-180, -185, -180, -187, -240, -305, -163, 332, 941, 1194, 554, -493, -628, -192, -216, -342, -221, -190, -240, -207, -173, -183, -173, -154, -146, -137, -127, -118, -105, -89, -79, -79, -81, -91, -101, -108, -120, -132, -146, -163, -183, -195, -204, -214, -219, -221, -226, -224, -214, -214, -211, -204, -199, -199, -195, -185, -183, -180, -173, -168, -168, -168, -163, -161, -166, -168, -171, -175, -175, -171, -168, -171, -171])
('ECG', 1740337577535395916, [-173, -173, -173, -171, -168, -166, -166, -168, -163, -161, -158, -161, -161, -158, -156, -154, -142, -125, -125, -130, -125, -125, -139, -151, -156, -161, -156, -151, -166, -221, -291, -171, 301, 925, 1240, 698, -330, -568, -171, -173, -332, -228, -175, -233, -209, -168, -180, -175, -151, -144, -134, -120, -108, -103, -96, -86, -84, -84, -84, -93, -103, -115, -125, -134, -154, -171, -185, -197, -207, -214, -211, -209, -209])
('ECG', 1740337578097115310, [-207, -199, -195, -192, -187, -185, -183, -180, -175, -168, -163, -161, -161, -161, -158, -156, -156, -156, -161, -163, -166, -166, -166, -166, -163, -163, -161, -163, -166, -168, -166, -166, -166, -163, -163, -163, -161, -158, -158, -158, -146, -134, -130, -137, -132, -127, -142, -154, -161, -166, -163, -158, -163, -192, -260, -252, 45, 599, 1069, 932, 38, -590, -330, -120, -291, -281, -178, -214, -228, -180, -175, -183, -166])
('ECG', 1740337578658834706, [-156, -151, -139, -125, -115, -110, -103, -98, -93, -96, -103, -115, -125, -132, -142, -161, -178, -190, -204, -214, -221, -226, -226, -221, -224, -224, -216, -211, -207, -197, -195, -195, -195, -195, -192, -185, -185, -187, -180, -180, -187, -192, -187, -185, -187, -187, -190, -192, -190, -187, -192, -192, -185, -183, -185, -192, -195, -192, -187, -187, -187, -185, -183, -183, -178, -175, -175, -168, -154, -154, -154, -142, -146])
('ECG', 1740337579220554100, [-173, -185, -187, -185, -180, -175, -187, -231, -293, -207, 204, 792, 1129, 657, -354, -652, -243, -190, -344, -255, -195, -252, -231, -183, -187, -187, -171, -161, -151, -139, -132, -122, -108, -103, -105, -110, -113, -115, -122, -132, -144, -161, -180, -195, -209, -221, -228, -236, -238, -240, -240, -233, -231, -231, -226, -224, -221, -209, -202, -199, -197, -195, -190, -185, -185, -187, -190, -190, -190, -187, -190, -197, -195])
('ECG', 1740337579782273494, [-187, -190, -192, -192, -197, -202, -195, -187, -190, -195, -195, -187, -183, -185, -190, -195, -190, -175, -161, -154, -156, -156, -146, -149, -166, -180, -187, -187, -183, -180, -197, -255, -308, -127, 387, 980, 1151, 409, -573, -570, -156, -240, -342, -214, -197, -243, -199, -171, -185, -178, -156, -151, -144, -130, -115, -103, -93, -84, -79, -81, -89, -98, -108, -120, -132, -149, -163, -180, -197, -211, -224, -228, -228])
('ECG', 1740337580343992888, [-226, -224, -224, -219, -211, -207, -202, -199, -197, -192, -185, -183, -180, -173, -173, -173, -171, -171, -173, -173, -173, -175, -175, -178, -178, -173, -173, -175, -173, -173, -173, -171, -168, -168, -168, -168, -166, -166, -166, -163, -158, -158, -163, -163, -151, -134, -127, -134, -127, -122, -139, -156, -163, -166, -163, -161, -163, -195, -264, -252, 65, 640, 1112, 949, 26, -594, -320, -115, -296, -284, -175, -216, -228])
('ECG', 1740337580905712282, [-180, -178, -183, -163, -154, -149, -137, -125, -118, -108, -96, -93, -91, -91, -93, -101, -113, -120, -130, -146, -161, -175, -190, -202, -209, -214, -211, -211, -207, -202, -199, -197, -190, -185, -183, -178, -173, -171, -171, -171, -166, -161, -161, -166, -173, -173, -168, -168, -173, -175, -175, -175, -175, -175, -175, -178, -180, -183, -180, -180, -183, -175, -173, -178, -180, -180, -180, -180, -178, -180, -183, -173, -156])
('ECG', 1740337581467431676, [-151, -156, -154, -149, -163, -180, -195, -199, -192, -185, -190, -214, -277, -284, -4, 549, 1035, 925, 33, -635, -387, -146, -317, -325, -209, -243, -267, -216, -195, -199, -190, -183, -178, -163, -156, -149, -134, -125, -118, -113, -110, -118, -130, -139, -144, -156, -178, -197, -211, -221, -231, -236, -240, -248, -245, -238, -233, -231, -228, -228, -226, -221, -209, -202, -199, -197, -195, -192, -192, -190, -187, -187, -187])
('ECG', 1740337582029120554, [-187, -190, -190, -190, -195, -195, -190, -187, -192, -192, -195, -195, -190, -187, -190, -195, -192, -187, -185, -183, -183, -185, -187, -187, -183, -173, -161, -156, -151, -144, -151, -171, -183, -192, -187, -178, -180, -192, -233, -298, -216, 192, 790, 1158, 715, -334, -681, -255, -175, -344, -260, -192, -245, -228, -190, -195, -185, -158, -154, -151, -134, -125, -120, -105, -91, -89, -93, -96, -98, -110, -122, -132, -144])
('ECG', 1740337582590839948, [-166, -183, -192, -204, -221, -233, -233, -231, -231, -226, -221, -219, -216, -209, -209, -207, -197, -192, -190, -180, -171, -173, -173, -171, -173, -173, -166, -163, -175, -183, -183, -180, -178, -175, -175, -175, -175, -178, -175, -171, -168, -171, -173, -171, -168, -166, -168, -168, -163, -158, -161, -161, -149, -134, -132, -139, -130, -127, -146, -161, -168, -171, -163, -161, -171, -211, -284, -231, 154, 756, 1163, 823, -178])
('ECG', 1740337583152559342, [-626, -252, -134, -322, -264, -175, -231, -226, -178, -180, -183, -161, -151, -149, -134, -118, -110, -103, -96, -89, -89, -91, -96, -101, -108, -120, -134, -151, -168, -183, -197, -211, -221, -224, -224, -224, -219, -209, -207, -207, -204, -199, -190, -185, -180, -180, -175, -173, -171, -171, -168, -166, -163, -166, -171, -168, -168, -171, -173, -171, -168, -171, -171, -168, -171, -171, -171, -173, -171, -168, -168, -168, -171])
('ECG', 1740337583714258392, [-168, -166, -166, -163, -163, -161, -163, -163, -156, -142, -130, -132, -137, -127, -130, -149, -163, -171, -173, -166, -161, -173, -211, -277, -195, 204, 770, 1098, 679, -262, -570, -207, -161, -325, -248, -183, -233, -221, -180, -185, -183, -163, -156, -154, -142, -130, -125, -120, -110, -101, -98, -103, -113, -122, -127, -134, -151, -171, -180, -195, -211, -221, -231, -236, -236, -231, -231, -228, -226, -221, -214, -204, -202])
('ECG', 1740337584275967612, [-202, -199, -197, -195, -190, -187, -185, -185, -190, -190, -192, -192, -187, -185, -190, -195, -195, -195, -192, -192, -197, -197, -202, -202, -195, -190, -192, -195, -195, -192, -192, -197, -197, -192, -187, -185, -180, -180, -180, -166, -149, -158, -166, -156, -158, -173, -187, -197, -195, -185, -185, -197, -245, -305, -175, 272, 833, 1083, 517, -455, -616, -211, -214, -344, -245, -211, -255, -224, -195, -209, -195, -166, -163])
('ECG', 1740337584837687006, [-161, -144, -130, -122, -113, -105, -103, -108, -110, -110, -115, -132, -146, -161, -175, -190, -207, -221, -231, -231, -233, -240, -240, -236, -231, -231, -226, -219, -219, -214, -202, -190, -187, -192, -185, -185, -190, -185, -178, -183, -190, -187, -185, -187, -187, -185, -190, -195, -197, -192, -185, -187, -195, -192, -187, -185, -187, -187, -185, -185, -190, -185, -175, -173, -178, -178, -163, -149, -149, -154, -142, -139, -158])
('ECG', 1740337585399401316, [-173, -180, -185, -180, -175, -180, -214, -284, -245, 113, 705, 1139, 855, -158, -684, -313, -144, -330, -274, -175, -228, -231, -183, -180, -183, -163, -151, -144, -127, -118, -110, -96, -84, -79, -74, -79, -86, -93, -108, -120, -132, -146, -163, -178, -197, -214, -226, -228, -226, -226, -226, -221, -214, -209, -207, -204, -197, -190, -185, -183, -180, -175, -173, -171, -166, -166, -168, -168, -168, -166, -163, -163, -171])
('ECG', 1740337585961095278, [-173, -175, -178, -175, -171, -168, -173, -175, -171, -171, -171, -168, -166, -163, -163, -163, -163, -166, -163, -163, -161, -158, -149, -134, -130, -137, -134, -125, -139, -156, -163, -171, -168, -163, -166, -190, -255, -272, -19, 522, 1035, 1016, 190, -563, -392, -113, -272, -308, -190, -211, -240, -195, -183, -195, -175, -158, -156, -146, -134, -130, -118, -105, -98, -93, -93, -98, -105, -113, -127, -137, -151, -168, -183])
('ECG', 1740337586522814672, [-197, -211, -219, -221, -224, -224, -221, -216, -214, -209, -204, -199, -197, -190, -185, -180, -178, -173, -171, -168, -166, -166, -166, -166, -168, -168, -168, -171, -171, -173, -171, -171, -171, -168, -171, -171, -171, -171, -171, -173, -175, -173, -173, -171, -171, -171, -168, -168, -168, -166, -163, -163, -161, -156, -146, -132, -132, -137, -130, -132, -154, -166, -173, -175, -171, -166, -175, -211, -272, -207, 158, 708, 1059])
('ECG', 1740337587084534066, [708, -207, -573, -238, -161, -327, -260, -187, -238, -231, -187, -192, -195, -173, -166, -158, -146, -137, -130, -120, -110, -108, -101, -98, -101, -110, -125, -137, -149, -161, -173, -187, -204, -214, -216, -221, -224, -224, -224, -224, -214, -204, -202, -202, -197, -195, -190, -190, -190, -187, -180, -175, -175, -175, -180, -185, -185, -185, -180, -178, -185, -190, -190, -190, -187, -185, -185, -185, -185, -185, -185, -185, -185])
('ECG', 1740337587646222942, [-183, -185, -185, -185, -185, -180, -173, -173, -178, -173, -173, -178, -166, -149, -149, -156, -149, -142, -156, -171, -180, -187, -185, -178, -183, -214, -277, -257, 48, 590, 1035, 864, -45, -645, -361, -154, -315, -296, -197, -233, -238, -192, -199, -207, -180, -163, -156, -149, -142, -132, -115, -105, -103, -98, -98, -110, -120, -127, -137, -151, -163, -178, -197, -207, -216, -228, -233, -236, -236, -233, -231, -226, -216])
('ECG', 1740337588207942336, [-214, -214, -211, -209, -199, -180, -173, -180, -185, -183, -175, -175, -178, -180, -175, -178, -183, -178, -171, -178, -187, -190, -187, -185, -185, -183, -180, -180, -183, -180, -175, -173, -171, -171, -173, -173, -171, -173, -171, -166, -166, -168, -168, -163, -154, -139, -137, -137, -127, -130, -154, -168, -175, -178, -171, -166, -173, -216, -284, -202, 216, 811, 1163, 729, -298, -657, -248, -171, -332, -243, -173, -226, -209])
('ECG', 1740337588769631214, [-168, -175, -173, -149, -144, -139, -125, -113, -103, -89, -74, -69, -69, -69, -74, -86, -98, -110, -127, -144, -156, -171, -187, -202, -211, -221, -221, -216, -211, -207, -202, -199, -195, -192, -190, -183, -175, -171, -168, -166, -161, -158, -156, -156, -156, -156, -156, -158, -158, -156, -158, -163, -166, -161, -161, -166, -166, -161, -158, -161, -161, -158, -158, -158, -158, -158, -154, -151, -151, -154, -151, -146, -146])
('ECG', 1740337589331350608, [-139, -122, -118, -127, -118, -110, -130, -146, -154, -158, -156, -151, -151, -183, -255, -236, 89, 662, 1124, 951, 21, -594, -305, -103, -291, -277, -168, -207, -219, -171, -168, -175, -154, -139, -137, -122, -108, -103, -91, -79, -72, -67, -67, -74, -81, -89, -103, -118, -134, -151, -168, -180, -192, -204, -209, -209, -209, -207, -202, -199, -192, -187, -185, -183, -178, -175, -171, -166, -166, -166, -161, -156, -156])
('ECG', 1740337589893039484, [-156, -154, -156, -158, -161, -158, -161, -163, -163, -161, -163, -161, -161, -163, -166, -166, -166, -163, -163, -163, -161, -158, -158, -158, -156, -158, -158, -156, -154, -154, -154, -144, -127, -122, -132, -130, -122, -137, -154, -158, -166, -166, -158, -161, -180, -240, -262, -38, 472, 977, 1014, 257, -517, -414, -122, -255, -313, -197, -207, -238, -195, -180, -190, -173, -158, -156, -144, -130, -122, -113, -103, -93, -86])
('ECG', 1740337590454758878, [-84, -86, -93, -103, -113, -125, -139, -154, -171, -185, -197, -207, -211, -211, -211, -211, -209, -202, -195, -192, -187, -185, -183, -178, -173, -171, -171, -166, -163, -161, -163, -163, -161, -161, -166, -171, -168, -163, -168, -171, -168, -168, -168, -168, -171, -173, -173, -171, -168, -168, -171, -171, -168, -168, -171, -166, -161, -163, -166, -166, -163, -163, -161, -161, -161, -156, -154, -154, -144, -132, -132, -137, -130])
('ECG', 1740337591016478272, [-127, -146, -163, -168, -168, -166, -163, -171, -207, -269, -209, 158, 717, 1086, 758, -178, -599, -260, -154, -322, -264, -180, -231, -226, -183, -195, -192, -161, -146, -149, -139, -125, -113, -108, -101, -93, -91, -91, -96, -108, -120, -127, -139, -156, -168, -178, -192, -211, -221, -219, -221, -224, -224, -221, -219, -211, -204, -197, -199, -199, -187, -178, -180, -180, -175, -173, -171, -173, -171, -166, -166, -163, -168])
('ECG', 1740337591578167148, [-173, -178, -183, -180, -175, -175, -178, -178, -178, -178, -175, -173, -178, -180, -175, -168, -171, -173, -171, -173, -178, -173, -161, -161, -163, -161, -163, -161, -146, -134, -137, -144, -132, -127, -149, -161, -163, -166, -163, -161, -171, -199, -264, -228, 118, 696, 1129, 888, -84, -650, -315, -127, -308, -279, -183, -221, -221, -171, -171, -178, -156, -146, -142, -127, -110, -101, -93, -81, -67, -65, -69, -74, -84])
('ECG', 1740337592139856026, [-96, -110, -125, -139, -154, -168, -183, -192, -199, -211, -216, -214, -209, -207, -204, -199, -195, -187, -185, -183, -175, -166, -161, -158, -156, -156, -154, -151, -151, -154, -154, -149, -151, -156, -154, -156, -161, -161, -156, -156, -156, -156, -156, -158, -154, -151, -156, -156, -151, -149, -151, -151, -154, -151, -149, -146, -149, -146, -144, -144, -142, -134, -122, -120, -120, -110, -110, -130, -144, -151, -156, -151, -144])
('ECG', 1740337592701575420, [-151, -187, -255, -211, 149, 729, 1153, 888, -72, -592, -267, -120, -303, -264, -171, -219, -221, -171, -171, -175, -154, -144, -137, -125, -115, -105, -93, -86, -77, -67, -65, -72, -79, -91, -105, -120, -134, -149, -161, -175, -187, -197, -204, -207, -207, -202, -199, -197, -192, -185, -178, -178, -175, -171, -166, -161, -158, -154, -151, -154, -151, -149, -146, -151, -154, -151, -154, -156, -156, -154, -156, -158, -158])
('ECG', 1740337593263279556, [-158, -158, -156, -156, -156, -156, -158, -156, -154, -154, -154, -154, -151, -149, -151, -151, -151, -151, -149, -146, -146, -144, -134, -120, -118, -127, -120, -115, -132, -149, -156, -161, -158, -154, -156, -183, -245, -240, 38, 568, 1028, 932, 98, -549, -337, -115, -279, -289, -180, -207, -228, -187, -180, -185, -168, -154, -151, -142, -127, -118, -108, -98, -89, -84, -86, -86, -91, -101, -110, -120, -137, -154, -168])
('ECG', 1740337593824983690, [-180, -195, -204, -209, -209, -207, -207, -202, -197, -192, -190, -187, -187, -183, -178, -173, -166, -163, -166, -166, -166, -166, -166, -166, -166, -166, -168, -171, -173, -173, -171, -171, -173, -175, -178, -178, -180, -180, -178, -171, -171, -175, -180, -178, -178, -180, -178, -173, -180, -180, -163, -156, -158, -158, -156, -151, -149, -156, -151, -130, -132, -151, -158, -171, -183, -183, -183, -187, -209, -260, -175, 228, 792])
('ECG', 1740337594386677654, [1086, 611, -334, -602, -238, -209, -356, -269, -199, -231, -219, -204, -219, -211, -187, -173, -168, -168, -161, -137, -115, -113, -118, -115, -113, -115, -132, -146, -151, -168, -187, -190, -197, -216, -238, -250, -245, -233, -228, -228, -228, -226, -226, -236, -236, -211, -190, -187, -183, -183, -187, -185, -185, -192, -187, -168, -161, -173, -192, -190, -178, -178, -190, -192, -175, -166, -180, -192, -187, -187, -199, -197, -192])
('ECG', 1740337594948391960, [-190, -190, -175, -161, -168, -180, -173, -166, -178, -190, -190, -173, -156, -151, -144, -127, -134, -161, -173, -190, -204, -178, -151, -173, -216, -277, -243, 120, 725, 1153, 857, -144, -660, -305, -154, -344, -298, -187, -216, -224, -187, -190, -195, -175, -161, -149, -127, -113, -115, -103, -77, -74, -79, -74, -86, -110, -118, -98, -98, -137, -168, -178, -199, -224, -233, -233, -236, -240, -240, -233, -226, -228, -216])
('ECG', 1740337595510080838, [-199, -197, -199, -197, -190, -187, -185, -178, -171, -168, -168, -168, -163, -166, -173, -173, -166, -158, -161, -168, -166, -154, -149, -158, -161, -154, -151, -158, -161, -171, -171, -149, -146, -161, -144, -118, -113, -115, -118, -115, -118, -137, -154, -161, -158, -146, -142, -149, -175, -243, -250, 38, 626, 1153, 1083, 166, -602, -380, -96, -272, -293, -163, -199, -228, -161, -137, -151, -139, -120, -120, -113, -93, -89])
('ECG', 1740337596071800232, [-91, -72, -55, -52, -48, -40, -50, -65, -62, -65, -101, -134, -144, -163, -183, -190, -199, -209, -209, -197, -180, -171, -180, -185, -173, -163, -173, -171, -166, -171, -168, -146, -130, -130, -130, -137, -144, -144, -156, -166, -146, -125, -127, -142, -144, -144, -149, -149, -137, -139, -151, -142, -132, -146, -156, -144, -130, -139, -139, -120, -110, -120, -115, -105, -110, -125, -144, -158, -149, -142, -146, -158, -211])
('ECG', 1740337596633489108, [-269, -125, 344, 912, 1129, 544, -373, -505, -151, -192, -320, -207, -156, -209, -202, -168, -163, -151, -134, -127, -122, -118, -113, -108, -101, -86, -72, -65, -57, -50, -60, -81, -93, -108, -132, -149, -163, -171, -173, -187, -197, -197, -195, -197, -195, -190, -185, -175, -166, -161, -158, -154, -151, -156, -161, -158, -151, -151, -154, -151, -144, -144, -154, -151, -144, -144, -149, -156, -154, -156, -161, -156, -154])
('ECG', 1740337597195188158, [-156, -149, -139, -146, -154, -151, -146, -146, -146, -149, -149, -139, -127, -122, -130, -122, -110, -132, -154, -149, -151, -151, -144, -144, -163, -202, -252, -168, 214, 768, 1086, 660, -262, -556, -207, -163, -320, -243, -175, -221, -216, -183, -183, -178, -163, -158, -151, -139, -137, -130, -103, -84, -84, -84, -81, -84, -93, -108, -122, -139, -154, -171, -185, -187, -183, -199, -221, -228, -221, -221, -228, -224, -204])
('ECG', 1740337597756897378, [-185, -183, -187, -185, -185, -185, -175, -173, -178, -175, -168, -168, -171, -173, -180, -185, -178, -171, -171, -171, -163, -166, -178, -185, -180, -183, -192, -187, -161, -154, -173, -187, -180, -178, -175, -173, -171, -178, -183, -171, -144, -132, -137, -137, -127, -142, -168, -173, -175, -173, -161, -161, -180, -224, -281, -192, 202, 763, 1103, 700, -269, -635, -267, -175, -320, -245, -183, -233, -219, -178, -185, -183, -158])
('ECG', 1740337598318586254, [-149, -149, -137, -120, -110, -105, -96, -81, -67, -67, -81, -93, -101, -113, -130, -146, -166, -185, -192, -195, -207, -231, -228, -216, -224, -233, -226, -216, -211, -207, -197, -185, -185, -187, -183, -175, -175, -175, -173, -168, -171, -171, -171, -171, -171, -173, -180, -183, -178, -180, -183, -178, -171, -168, -168, -171, -173, -178, -187, -180, -158, -156, -173, -168, -149, -151, -146, -122, -120, -127, -120, -127, -151])
('ECG', 1740337598880300564, [-166, -173, -163, -144, -144, -163, -209, -279, -197, 216, 816, 1185, 766, -262, -643, -250, -156, -308, -226, -166, -224, -207, -166, -178, -173, -146, -137, -137, -120, -105, -98, -84, -65, -52, -57, -65, -74, -79, -86, -101, -118, -130, -142, -158, -175, -187, -202, -216, -224, -221, -211, -202, -202, -204, -195, -187, -183, -175, -168, -163, -166, -163, -158, -154, -158, -161, -156, -146, -139, -151, -158, -154, -156])
