('ECG', 1756399685246481000, [-3019, -2839, -2924, -2868, -2776, -2839, -2801, -2701, -2740, -2726, -2619, -2607, -2653, -2663, -2609, -2496, -2457, -2539, -2592, -2561, -2486, -2425, -2450, -2464, -2430, -2454, -2505, -2438, -2300, -2290, -2336, -2307, -2326, -2379, -2336, -2275, -2261, -2232, -2268, -2382, -2205, -1588, -949, -917, -1905, -2820, -2510, -2106, -2297, -2273, -2094, -2157, -2195, -2118, -2123, -2154, -2120, -2096, -2111, -2084, -1999, -1965, -2014, -2040, -2007, -1992, -1992, -1968, -1963, -2016, -2057, -2048, -2072])
('ECG', 1756399685808230912, [-2120, -2128, -1915, -1670, -1965, -2331, -2191, -2086, -2186, -2154, -2106, -2130, -2108, -2086, -2096, -2065, -2036, -2057, -2074, -2074, -2048, -2016, -2011, -2011, -2011, -2007, -1876, -1542, -1251, -1101, -895, -866, -1150, -1307, -1365, -1721, -1852, -1656, -1990, -2372, -2130, -1735, -1549, -1886, -2375, -2316, -2065, -1626, -857, -648, -1508, -2498, -2496, -2072, -2091, -2166, -2067, -2050, -2057, -2009, -2002, -2019, -1975, -1919, -1905, -1907, -1900, -1883, -1864, -1815, -1588, -900, -210])
('ECG', 1756399686369950306, [-314, -808, -791, -346, -549, -1629, -1939, -1314, -1714, -2394, -1961, -1372, -1084, -835, -886, -1031, -840, -808, -733, -423, -481, -617, -539, -525, -542, -493, -617, -975, -1280, -1297, -1261, -1268, -1045, -934, -1120, -1043, -832, -917, -1019, -990, -1038, -1137, -1193, -1258, -1382, -1389, -1152, -1024, -1118, -1145, -1118, -1166, -1258, -1365, -1348, -1341, -1445, -1162, -939, -1566, -2101, -1861, -1634, -1762, -1714, -1503, -1530, -1513, -1239, -1045, -999, -968, -1021])
('ECG', 1756399686931700218, [-1128, -1140, -1145, -1181, -1142, -1268, -1859, -2597, -3006, -3089, -3052, -2963, -2842, -2396, -1268, -510, -968, -1491, -1702, -2186, -2486, -2348, -2423, -2760, -2801, -2680, -2762, -2832, -2738, -2672, -2648, -2583, -2537, -2510, -2469, -2440, -2404, -2346, -2331, -2365, -2384, -2350, -1951, -750, 208, -280, -934, -752, -665, -588, -99, -87, -489, -556, -496, -559, -636, -653, -670, -728, -859, -1760, -3302, -3442, -2200, -1588, -1963, -2905, -3471, -3028, -2704, -2864, -2760])
('ECG', 1756399687493424700, [-2568, -2612, -2600, -2488, -2474, -2467, -2365, -2280, -2258, -2222, -2164, -2130, -2103, -2077, -2062, -2040, -2016, -2004, -1992, -1987, -1990, -1978, -1968, -1975, -1987, -1961, -1491, 24, 1363, 1082, 636, 910, 774, 302, 302, 571, 617, 467, 343, 423, 573, 663, 692, -590, -3234, -4052, -3026, -2985, -3367, -3055, -2883, -2992, -2898, -2755, -2735, -2721, -2651, -2583, -2563, -2542, -2493, -2454, -2430, -2408, -2367, -2375, -2394, -2099, -1372, -653, -830, -2137, -2876])
('ECG', 1756399688055169524, [-2270, -1936, -2166, -2072, -1915, -1973, -1980, -1907, -1871, -1859, -1830, -1784, -1757, -1743, -1718, -1687, -1670, -1658, -1648, -1648, -1648, -1656, -1663, -1648, -1634, -1658, -1685, -1687, -1689, -1699, -1692, -1677, -1680, -1685, -1680, -1663, -1648, -1634, -1614, -1605, -1619, -1624, -1602, -1585, -1573, -1556, -1556, -1571, -1583, -1576, -1568, -1585, -1593, -1588, -1602, -1610, -1590, -1576, -1571, -1556, -1542, -1534, -1547, -1571, -1571, -1544, -1520, -1513, -1525, -1568, -1622, -1501, -990])
('ECG', 1756399688616888920, [-288, -36, -927, -2077, -1917, -1355, -1496, -1573, -1409, -1440, -1476, -1389, -1396, -1447, -1406, -1370, -1370, -1346, -1343, -1367, -1348, -1319, -1346, -1377, -1355, -1341, -1380, -1426, -1416, -1406, -1428, -1426, -1426, -1450, -1459, -1455, -1452, -1447, -1438, -1423, -1409, -1406, -1416, -1413, -1392, -1380, -1396, -1409, -1394, -1380, -1384, -1384, -1370, -1370, -1375, -1377, -1384, -1394, -1392, -1367, -1358, -1384, -1396, -1367, -1343, -1355, -1353, -1324, -1317, -1346, -1375, -1365, -1338])
('ECG', 1756399689178628660, [-1346, -1353, -1355, -1409, -1380, -1024, -423, -84, -660, -1726, -1844, -1292, -1280, -1452, -1324, -1266, -1329, -1292, -1254, -1273, -1258, -1225, -1217, -1210, -1200, -1200, -1193, -1174, -1166, -1174, -1183, -1210, -1234, -1212, -1198, -1234, -1263, -1278, -1309, -1334, -1346, -1355, -1350, -1348, -1343, -1329, -1324, -1321, -1300, -1300, -1326, -1321, -1290, -1285, -1295, -1278, -1288, -1319, -1302, -1295, -1324, -1317, -1300, -1317, -1321, -1304, -1304, -1319, -1317, -1312, -1321, -1319, -1307])
('ECG', 1756399689740358226, [-1300, -1297, -1288, -1268, -1266, -1290, -1307, -1292, -1290, -1312, -1317, -1314, -1358, -1317, -958, -389, -140, -760, -1694, -1697, -1212, -1227, -1348, -1256, -1237, -1275, -1239, -1203, -1200, -1198, -1196, -1188, -1169, -1164, -1147, -1118, -1120, -1135, -1123, -1118, -1142, -1154, -1152, -1171, -1191, -1193, -1203, -1215, -1225, -1239, -1256, -1266, -1285, -1295, -1271, -1256, -1263, -1261, -1242, -1234, -1242, -1237, -1227, -1229, -1234, -1229, -1215, -1225, -1246, -1239, -1222, -1237, -1254])
('ECG', 1756399690302077620, [-1234, -1225, -1246, -1251, -1232, -1232, -1256, -1268, -1246, -1225, -1227, -1225, -1203, -1188, -1198, -1220, -1229, -1200, -1179, -1203, -1217, -1220, -1244, -1096, -644, -200, -331, -1147, -1682, -1360, -1099, -1232, -1220, -1128, -1152, -1164, -1137, -1152, -1162, -1128, -1101, -1096, -1087, -1065, -1053, -1043, -1048, -1062, -1072, -1077, -1087, -1099, -1113, -1137, -1147, -1150, -1169, -1186, -1196, -1210, -1227, -1237, -1242, -1237, -1220, -1205, -1198, -1193, -1200, -1193, -1176, -1188, -1200])
('ECG', 1756399690863797014, [-1186, -1179, -1183, -1193, -1198, -1183, -1183, -1215, -1225, -1191, -1181, -1208, -1205, -1181, -1191, -1205, -1186, -1169, -1169, -1154, -1125, -1106, -1118, -1145, -1147, -1140, -1147, -1142, -1125, -1120, -1142, -1183, -1125, -784, -302, -174, -784, -1520, -1440, -1079, -1135, -1191, -1089, -1082, -1108, -1082, -1070, -1082, -1072, -1038, -1016, -1021, -1021, -1002, -973, -973, -990, -987, -1002, -1031, -1033, -1038, -1055, -1053, -1058, -1082, -1108, -1130, -1145, -1171, -1196, -1191, -1174])
('ECG', 1756399691425516408, [-1166, -1164, -1162, -1159, -1162, -1162, -1154, -1142, -1157, -1179, -1171, -1157, -1166, -1179, -1171, -1162, -1169, -1164, -1145, -1142, -1166, -1174, -1152, -1137, -1150, -1164, -1157, -1145, -1142, -1113, -1099, -1113, -1118, -1133, -1154, -1145, -1147, -1162, -1147, -1147, -1191, -1196, -1012, -595, -210, -358, -1147, -1624, -1297, -1065, -1186, -1164, -1079, -1108, -1128, -1089, -1072, -1082, -1070, -1048, -1045, -1028, -1007, -1009, -999, -975, -973, -987, -1002, -1028, -1038, -1031, -1048])
('ECG', 1756399691987266322, [-1055, -1055, -1101, -1147, -1142, -1142, -1162, -1157, -1145, -1147, -1147, -1137, -1113, -1096, -1111, -1118, -1084, -1070, -1087, -1089, -1084, -1079, -1074, -1084, -1084, -1077, -1079, -1079, -1074, -1082, -1084, -1082, -1084, -1094, -1087, -1065, -1045, -1041, -1043, -1045, -1053, -1065, -1072, -1072, -1072, -1070, -1065, -1082, -1123, -1060, -711, -225, -108, -745, -1484, -1389, -1031, -1074, -1116, -1033, -1031, -1041, -1012, -1002, -995, -978, -966, -963, -958, -934, -905, -895, -886])
('ECG', 1756399692548985716, [-886, -900, -903, -905, -929, -944, -939, -949, -978, -1004, -1028, -1058, -1074, -1077, -1082, -1084, -1070, -1050, -1055, -1067, -1048, -1021, -1026, -1036, -1026, -1026, -1048, -1050, -1043, -1038, -1043, -1050, -1048, -1043, -1043, -1048, -1067, -1089, -1087, -1058, -1036, -1033, -1028, -1016, -1033, -1062, -1058, -1048, -1065, -1074, -1065, -1077, -1113, -1089, -849, -387, -53, -399, -1263, -1522, -1101, -1004, -1142, -1050, -982, -1031, -1007, -956, -963, -970, -958, -936, -907])
('ECG', 1756399693110705110, [-903, -915, -890, -866, -878, -886, -874, -893, -922, -922, -917, -934, -956, -982, -1007, -1024, -1050, -1070, -1074, -1077, -1070, -1060, -1050, -1038, -1033, -1043, -1048, -1041, -1028, -1031, -1043, -1038, -1028, -1038, -1050, -1031, -1026, -1050, -1060, -1050, -1065, -1079, -1072, -1045, -1026, -1038, -1033, -1019, -1031, -1055, -1058, -1045, -1041, -1065, -1091, -1104, -1082, -890, -452, -55, -254, -1096, -1544, -1176, -958, -1084, -1041, -963, -999, -1002, -961, -953, -953])
('ECG', 1756399693672455022, [-932, -920, -912, -888, -866, -859, -849, -832, -847, -883, -881, -874, -898, -905, -893, -907, -944, -975, -982, -987, -1021, -1045, -1033, -1028, -1033, -1026, -1016, -1009, -1002, -995, -997, -997, -999, -1009, -1007, -1004, -1007, -1004, -999, -1009, -1028, -1024, -1009, -1009, -1019, -1031, -1043, -1041, -1026, -1009, -1002, -999, -995, -997, -1002, -1014, -1024, -1019, -1014, -1014, -1016, -1036, -1045, -886, -467, -58, -213, -1028, -1498, -1137, -907, -1053, -1016])
('ECG', 1756399694234174416, [-924, -966, -975, -932, -927, -936, -920, -886, -866, -859, -844, -828, -813, -808, -818, -825, -830, -837, -849, -854, -861, -881, -910, -939, -956, -966, -975, -990, -997, -999, -992, -978, -966, -966, -978, -975, -953, -956, -982, -978, -956, -953, -953, -946, -953, -973, -980, -968, -956, -963, -975, -982, -978, -966, -966, -978, -985, -980, -973, -961, -932, -924, -951, -951, -939, -961, -973, -963, -963, -958, -958, -997, -1031])
('ECG', 1756399694795893810, [-883, -462, -38, -121, -890, -1440, -1137, -861, -992, -992, -905, -934, -939, -893, -888, -895, -876, -864, -852, -832, -818, -813, -808, -794, -796, -803, -806, -835, -864, -854, -859, -878, -883, -903, -936, -953, -968, -990, -997, -999, -992, -973, -961, -949, -934, -944, -961, -949, -934, -936, -953, -966, -944, -932, -949, -944, -934, -963, -975, -953, -958, -968, -958, -953, -961, -963, -951, -944, -951, -966, -975, -963, -956])
('ECG', 1756399695357613206, [-966, -953, -912, -903, -920, -924, -932, -956, -956, -932, -920, -934, -941, -966, -1012, -895, -481, -29, -65, -803, -1406, -1154, -852, -961, -953, -852, -890, -900, -849, -849, -847, -825, -823, -815, -784, -762, -762, -767, -757, -733, -706, -721, -777, -794, -782, -796, -811, -811, -823, -847, -874, -890, -898, -907, -912, -917, -924, -910, -893, -895, -890, -886, -893, -890, -883, -893, -888, -874, -886, -915, -912, -898, -907])
('ECG', 1756399695919332600, [-922, -915, -912, -915, -907, -915, -922, -920, -915, -922, -944, -932, -910, -920, -927, -920, -915, -910, -900, -886, -874, -854, -852, -878, -890, -893, -910, -907, -893, -890, -888, -922, -922, -677, -213, 99, -225, -1058, -1326, -907, -794, -939, -871, -808, -859, -849, -806, -803, -806, -786, -760, -745, -750, -750, -736, -728, -723, -714, -711, -728, -750, -774, -784, -779, -791, -823, -849, -878, -910, -917, -917, -929, -934])
('ECG', 1756399696481051994, [-924, -917, -905, -895, -890, -890, -900, -910, -900, -886, -888, -900, -895, -876, -874, -888, -883, -876, -886, -898, -893, -883, -883, -898, -890, -878, -878, -871, -883, -900, -890, -874, -869, -864, -861, -869, -871, -869, -866, -847, -830, -832, -832, -820, -825, -847, -852, -840, -840, -854, -859, -871, -903, -798, -416, 33, 67, -614, -1273, -1079, -750, -864, -898, -779, -786, -823, -786, -772, -789, -777, -752, -740, -731])
('ECG', 1756399697042771388, [-731, -723, -692, -685, -699, -697, -697, -721, -731, -728, -740, -765, -779, -798, -823, -842, -852, -861, -881, -883, -876, -883, -886, -864, -847, -847, -844, -835, -820, -813, -832, -857, -854, -832, -828, -844, -842, -830, -849, -876, -861, -842, -852, -859, -844, -832, -840, -837, -818, -828, -849, -837, -828, -840, -832, -818, -825, -828, -815, -820, -832, -823, -801, -784, -784, -796, -798, -806, -825, -828, -820, -820, -820])
('ECG', 1756399697604495870, [-832, -876, -874, -648, -191, 154, -128, -958, -1273, -881, -743, -883, -840, -789, -825, -808, -779, -782, -774, -757, -752, -731, -706, -706, -704, -692, -687, -687, -692, -709, -706, -702, -723, -740, -752, -774, -808, -842, -859, -864, -878, -883, -874, -878, -890, -881, -869, -869, -876, -874, -844, -825, -830, -830, -818, -818, -832, -842, -832, -840, -854, -844, -835, -844, -849, -840, -832, -830, -835, -857, -859, -830, -825])
('ECG', 1756399698166210178, [-844, -844, -825, -818, -828, -832, -835, -842, -837, -825, -815, -801, -791, -782, -767, -791, -840, -837, -815, -823, -823, -823, -857, -837, -571, -72, 256, -154, -1048, -1258, -825, -752, -905, -832, -772, -803, -777, -755, -762, -740, -721, -738, -736, -704, -687, -690, -677, -658, -665, -685, -692, -704, -719, -728, -738, -738, -748, -782, -806, -811, -840, -876, -876, -859, -857, -847, -825, -823, -815, -801, -801, -811, -811])
('ECG', 1756399698727955004, [-811, -803, -798, -803, -801, -791, -789, -798, -808, -808, -803, -806, -811, -808, -808, -811, -794, -784, -806, -823, -813, -806, -815, -818, -806, -806, -811, -801, -786, -777, -769, -769, -784, -811, -820, -815, -808, -806, -808, -830, -878, -852, -566, -70, 234, -200, -1087, -1256, -823, -772, -895, -798, -745, -782, -774, -774, -779, -733, -702, -706, -702, -685, -677, -660, -629, -614, -634, -646, -648, -658, -673, -685, -697])
('ECG', 1756399699289669312, [-716, -743, -767, -789, -811, -823, -830, -847, -849, -840, -842, -840, -837, -840, -815, -789, -786, -789, -779, -784, -794, -777, -769, -789, -782, -774, -801, -811, -796, -801, -815, -815, -803, -784, -782, -794, -803, -818, -820, -798, -784, -789, -803, -801, -791, -803, -803, -767, -750, -760, -757, -760, -777, -777, -769, -791, -803, -794, -818, -854, -726, -319, 154, 174, -593, -1297, -1055, -706, -828, -847, -736, -765, -789])
('ECG', 1756399699851383620, [-736, -721, -738, -719, -685, -682, -685, -673, -658, -646, -629, -614, -605, -619, -651, -653, -644, -670, -694, -699, -728, -769, -789, -801, -818, -823, -815, -818, -828, -825, -820, -811, -786, -774, -782, -779, -779, -789, -774, -750, -762, -779, -779, -777, -777, -789, -796, -786, -791, -808, -811, -794, -786, -798, -791, -782, -796, -803, -798, -801, -806, -811, -794, -769, -767, -767, -755, -757, -782, -803, -798, -786, -782])
('ECG', 1756399700413087754, [-779, -801, -859, -806, -443, 79, 276, -312, -1164, -1171, -750, -779, -871, -762, -736, -765, -723, -719, -748, -721, -687, -704, -694, -653, -639, -624, -607, -624, -624, -602, -617, -641, -644, -653, -670, -673, -697, -760, -789, -782, -796, -808, -803, -813, -815, -796, -782, -772, -752, -752, -784, -786, -750, -745, -757, -745, -740, -745, -731, -719, -728, -752, -757, -726, -726, -769, -774, -748, -750, -757, -743, -731, -723])
('ECG', 1756399700974807148, [-728, -743, -738, -740, -767, -750, -733, -752, -736, -699, -697, -697, -687, -709, -755, -765, -736, -719, -748, -803, -748, -406, 108, 346, -193, -1048, -1113, -740, -762, -825, -716, -719, -748, -697, -687, -714, -687, -656, -658, -660, -646, -624, -612, -602, -598, -607, -614, -612, -607, -631, -660, -668, -685, -721, -752, -784, -798, -801, -811, -823, -815, -801, -801, -801, -789, -801, -811, -777, -745, -750, -755, -750, -757])
('ECG', 1756399701536526542, [-750, -736, -755, -786, -777, -755, -755, -767, -769, -755, -752, -762, -760, -745, -740, -745, -752, -765, -767, -755, -750, -752, -745, -738, -755, -757, -716, -706, -726, -709, -692, -728, -772, -755, -728, -752, -767, -757, -784, -706, -300, 222, 292, -447, -1193, -1012, -648, -745, -782, -670, -694, -750, -706, -668, -673, -677, -682, -673, -644, -622, -612, -600, -583, -576, -581, -588, -607, -627, -622, -619, -651, -687, -714])
('ECG', 1756399702098245938, [-736, -755, -760, -765, -784, -798, -796, -779, -769, -762, -755, -760, -757, -733, -733, -736, -711, -714, -745, -743, -726, -738, -733, -711, -726, -738, -750, -765, -750, -736, -743, -736, -721, -721, -726, -736, -750, -755, -745, -726, -726, -731, -728, -740, -745, -711, -706, -719, -694, -682, -714, -728, -726, -721, -711, -719, -745, -752, -786, -755, -428, 96, 348, -167, -1045, -1142, -706, -677, -803, -740, -699, -716, -699])
('ECG', 1756399702659965332, [-680, -670, -641, -629, -646, -629, -602, -607, -595, -568, -564, -573, -578, -578, -595, -602, -602, -641, -685, -692, -694, -714, -736, -743, -748, -757, -774, -786, -779, -757, -743, -738, -723, -709, -711, -709, -697, -699, -716, -719, -706, -706, -719, -723, -719, -716, -714, -711, -714, -716, -719, -721, -723, -723, -719, -721, -716, -714, -736, -743, -728, -716, -702, -692, -680, -660, -648, -665, -697, -709, -711, -706, -704])
('ECG', 1756399703221684726, [-706, -736, -772, -651, -230, 254, 259, -508, -1191, -953, -619, -745, -772, -660, -685, -704, -646, -634, -656, -646, -624, -602, -590, -585, -573, -556, -539, -530, -535, -544, -552, -554, -566, -598, -619, -629, -663, -699, -716, -733, -752, -757, -748, -748, -748, -736, -731, -733, -711, -694, -699, -709, -706, -697, -687, -692, -694, -690, -690, -687, -690, -694, -690, -682, -685, -694, -706, -706, -697, -697, -706, -704, -699])
('ECG', 1756399703783404120, [-699, -687, -677, -685, -697, -704, -706, -699, -690, -682, -673, -660, -646, -653, -690, -704, -685, -680, -690, -692, -719, -748, -600, -174, 278, 239, -537, -1166, -900, -600, -721, -723, -636, -663, -670, -634, -634, -624, -588, -585, -605, -593, -554, -532, -525, -520, -515, -513, -527, -544, -549, -561, -571, -576, -602, -636, -660, -699, -726, -728, -723, -719, -723, -731, -731, -714, -694, -685, -680, -673, -675, -687, -682])
('ECG', 1756399704345123514, [-665, -668, -680, -677, -668, -670, -677, -690, -694, -692, -692, -690, -682, -690, -709, -692, -675, -694, -685, -668, -694, -714, -692, -673, -673, -685, -692, -670, -644, -646, -663, -656, -648, -668, -692, -687, -680, -697, -697, -697, -738, -716, -416, 96, 380, -89, -973, -1125, -694, -646, -765, -677, -639, -687, -673, -639, -619, -600, -585, -573, -561, -554, -539, -525, -522, -522, -515, -515, -530, -552, -561, -566, -578])
('ECG', 1756399704906842908, [-600, -631, -658, -687, -719, -721, -714, -726, -736, -728, -716, -711, -714, -716, -704, -692, -687, -690, -692, -680, -673, -690, -690, -675, -677, -687, -692, -702, -697, -690, -697, -687, -677, -692, -685, -670, -668, -656, -646, -665, -675, -665, -656, -665, -677, -656, -614, -612, -634, -627, -622, -651, -668, -644, -631, -631, -639, -687, -697, -472, -9, 358, 128, -704, -1099, -721, -549, -682, -639, -588, -639, -631, -593])
('ECG', 1756399705468557218, [-583, -571, -547, -552, -571, -556, -513, -493, -498, -479, -457, -486, -520, -527, -535, -552, -564, -581, -600, -617, -646, -687, -709, -699, -699, -711, -702, -690, -687, -675, -656, -646, -641, -634, -624, -634, -644, -624, -607, -612, -619, -619, -629, -639, -624, -612, -607, -602, -612, -634, -644, -636, -627, -612, -612, -624, -627, -614, -607, -610, -617, -610, -595, -583, -581, -581, -568, -564, -590, -610, -605, -588, -578])
('ECG', 1756399706030271526, [-600, -639, -653, -607, -215, 1263, 2885, 2440, 1118, 1133, 1530, 1263, 1053, 1137, 1070, 757, -343, -1743, -1740, -1176, -1336, -1418, -1186, -1166, -1225, -1137, -1065, -1045, -1021, -1019, -1014, -978, -958, -958, -966, -973, -985, -999, -1004, -1021, -1021, -973, -956, -987, -975, -936, -917, -927, -956, -927, -854, -859, -915, -890, -837, -837, -837, -818, -828, -844, -840, -832, -828, -808, -798, -811, -808, -794, -794, -798, -791, -789, -796])
('ECG', 1756399706591970574, [-801, -791, -777, -760, -740, -728, -728, -733, -745, -752, -755, -757, -743, -733, -743, -765, -760, -585, -176, 205, 50, -719, -1164, -820, -595, -745, -728, -631, -658, -673, -644, -639, -631, -598, -585, -581, -549, -520, -513, -498, -476, -467, -469, -484, -513, -530, -532, -542, -564, -605, -648, -668, -673, -687, -709, -721, -714, -706, -704, -694, -682, -677, -670, -660, -668, -673, -663, -658, -658, -646, -641, -658, -675])
('ECG', 1756399707153689968, [-677, -668, -660, -660, -670, -673, -668, -658, -658, -668, -675, -685, -677, -648, -629, -631, -631, -627, -634, -658, -663, -646, -648, -665, -670, -680, -728, -648, -232, 309, 423, -312, -1169, -1043, -600, -673, -738, -612, -602, -641, -605, -585, -588, -568, -549, -535, -515, -503, -493, -474, -455, -457, -469, -476, -484, -498, -518, -532, -539, -564, -612, -636, -641, -656, -677, -702, -714, -699, -697, -697, -677, -673, -682])
('ECG', 1756399707715409362, [-656, -624, -624, -636, -631, -622, -627, -619, -619, -651, -663, -641, -631, -651, -644, -619, -644, -665, -644, -622, -610, -614, -610, -598, -617, -651, -653, -622, -617, -639, -644, -675, -641, -280, 334, 680, 62, -1079, -1210, -627, -595, -740, -612, -568, -619, -583, -554, -581, -568, -527, -525, -537, -515, -476, -450, -447, -469, -491, -503, -506, -503, -518, -535, -571, -600, -595, -639, -706, -714, -697, -702, -731, -740])
('ECG', 1756399708277128756, [-711, -694, -692, -685, -680, -656, -639, -665, -680, -656, -634, -629, -622, -627, -651, -651, -636, -639, -634, -622, -644, -658, -641, -634, -624, -617, -629, -614, -600, -629, -651, -634, -612, -610, -639, -699, -743, -484, 196, 823, 561, -690, -1334, -782, -530, -743, -658, -556, -622, -605, -549, -571, -568, -520, -520, -530, -506, -493, -481, -462, -464, -472, -486, -518, -547, -578, -593, -590, -619, -656, -663, -675, -699])
('ECG', 1756399708838843066, [-709, -711, -716, -711, -685, -651, -641, -648, -648, -641, -629, -634, -648, -644, -636, -641, -639, -634, -629, -617, -605, -605, -610, -607, -612, -610, -598, -595, -590, -573, -568, -571, -568, -571, -590, -598, -595, -593, -588, -585, -612, -685, -687, -341, 336, 798, 266, -956, -1212, -576, -491, -687, -552, -484, -566, -554, -518, -522, -501, -467, -472, -479, -467, -457, -455, -450, -438, -433, -457, -491, -513, -530, -537])
('ECG', 1756399709400537028, [-520, -464, -409, -234, 128, 271, 87, -2, 12, -38, -87, -79, -60, -67, -101, -118, -99, -58, -38, -53, -75, -70, -29, 36, 46, -29, -16, 297, 1166, 1985, 1844, 1467, 1442, 1181, 784, 673, 568, 365, 414, 673, 963, 1152, 1048, 878, 765, 581, 610, 939, 1145, 1101, 1058, 1104, 1041, 777, 571, 687, 1043, 1372, 1353, 663, -101, 19, 416, 283, 77, 72, 36, -21, -33, -58, -121, -186, -167])
('ECG', 1756399709962256422, [-82, -50, -123, -232, -300, -338, -397, -537, -738, -1157, -1796, -1423, -72, 355, -12, -36, -62, -309, -346, -234, -280, -409, -452, -421, -401, -438, -445, -414, -455, -522, -522, -518, -510, -486, -513, -542, -501, -476, -552, -622, -595, -581, -602, -535, -462, -486, -530, -627, -794, -864, -869, -874, -796, -736, -704, -598, -549, -600, -743, -1031, -1251, -1319, -1421, -1539, -1624, -1595, -1365, -1101, -1021, -1014, -721, -174, 99])
('ECG', 1756399710523975816, [-353, -1062, -968, -423, -305, -230, -75, -198, -266, 14, 423, 624, 527, 455, 464, 382, 343, 384, 341, 280, 261, 179, 50, -41, -87, -72, 111, 421, 484, 280, 116, 2, -41, 48, 89, 29, -19, -62, -113, -121, -108, -169, -251, -254, -276, -365, -401, -377, -399, -447, -484, -532, -559, -552, -549, -554, -537, -503, -474, -469, -479, -464, -457, -498, -513, -464, -426, -428, -445, -476, -532, -554, -501])
('ECG', 1756399711085695210, [-460, -464, -435, -426, -474, -464, -435, -462, -455, -423, -455, -506, -530, -438, -116, 295, 399, -159, -861, -784, -411, -481, -588, -503, -491, -527, -503, -472, -462, -452, -445, -457, -472, -464, -455, -435, -382, -377, -418, -423, -406, -430, -457, -462, -518, -619, -706, -828, -920, -890, -922, -1104, -1263, -1396, -1530, -1559, -1607, -1777, -1886, -1881, -1779, -1740, -1888, -1936, -1796, -1704, -1685, -1738, -1813, -1876, -1982, -2014, -1883])
('ECG', 1756399711647414604, [-1796, -1893, -1912, -1803, -1796, -1813, -1798, -1864, -1910, -1840, -1728, -1634, -1605, -1614, -1595, -1588, -1597, -1568, -1510, -1450, -1406, -1363, -1285, -1246, -1283, -1271, -1137, -999, -951, -966, -990, -1009, -997, -782, -317, 41, -191, -966, -1307, -939, -808, -966, -910, -847, -876, -815, -731, -723, -748, -755, -762, -840, -890, -801, -719, -690, -585, -510, -571, -656, -675, -668, -677, -702, -731, -750, -769, -791, -825, -849, -849, -844, -796])
('ECG', 1756399712209134000, [-738, -745, -755, -762, -774, -711, -646, -653, -687, -699, -670, -629, -612, -631, -670, -699, -721, -748, -738, -709, -723, -745, -748, -740, -726, -719, -723, -699, -658, -660, -699, -711, -682, -665, -663, -663, -687, -704, -690, -675, -617, -525, -506, -552, -559, -508, -496, -484, -130, 469, 682, 87, -767, -815, -447, -600, -813, -697, -670, -777, -794, -808, -847, -830, -791, -772, -748, -728, -719, -690, -653, -658, -680])
('ECG', 1756399712770853394, [-685, -699, -723, -726, -719, -731, -755, -772, -786, -803, -815, -815, -808, -803, -796, -786, -779, -762, -740, -733, -731, -706, -685, -675, -663, -651, -653, -663, -653, -636, -641, -646, -636, -634, -639, -631, -634, -641, -634, -634, -644, -641, -631, -627, -622, -617, -622, -629, -614, -602, -614, -614, -595, -581, -571, -564, -564, -576, -595, -605, -605, -600, -588, -576, -590, -639, -629, -380, 96, 421, 82, -736, -985])
('ECG', 1756399713332572788, [-595, -508, -658, -600, -549, -598, -583, -549, -559, -552, -520, -503, -491, -472, -452, -443, -435, -423, -418, -428, -430, -430, -438, -450, -474, -506, -515, -522, -559, -600, -610, -595, -590, -595, -593, -578, -576, -583, -581, -566, -556, -552, -549, -549, -549, -544, -554, -571, -581, -583, -585, -588, -593, -605, -605, -595, -595, -605, -614, -619, -622, -614, -614, -617, -612, -607, -610, -602, -588, -585, -588, -581, -571])
('ECG', 1756399713894292182, [-581, -588, -573, -554, -549, -554, -542, -539, -566, -590, -585, -573, -573, -576, -583, -622, -624, -382, 94, 409, 58, -750, -975, -578, -493, -644, -583, -530, -581, -571, -537, -544, -539, -510, -496, -489, -474, -457, -445, -440, -443, -433, -401, -363, -343, -343, -343, -358, -389, -401, -411, -445, -472, -481, -508, -525, -457, -307, -244, -300, -297, -251, -196, -94, -60, -133, -162, -176, -273, -334, -295, -251, -263])
('ECG', 1756399714455986146, [-302, -305, -300, -292, -273, -326, -433, -479, -493, -552, -610, -593, -535, -457, -375, -401, -561, -711, -762, -704, -576, -355, -92, -65, -392, -757, -825, -658, -213, 452, 452, -418, -1031, -982, -900, -961, -915, -685, -193, 266, 230, 89, 329, 527, 169, -743, -1464, -1292, -915, -970, -1002, -886, -883, -905, -844, -808, -801, -740, -607, -278, 135, 227, 96, 99, 191, 198, 133, 101, 125, 111, 24, -55, -87])
('ECG', 1756399715017700452, [-116, -113, -70, -84, -142, -176, -205, -232, -244, -239, -249, -290, -314, -305, -305, -319, -326, -338, -355, -346, -331, -353, -377, -348, -302, -300, -358, -401, -392, -387, -428, -522, -614, -716, -963, -1203, -1183, -1096, -1106, -1096, -1043, -1014, -995, -961, -932, -912, -888, -765, -368, 133, 278, 169, 145, 101, -48, -101, -21, -19, -82, -19, 67, 19, 46, 375, 842, 1028, 518, -273, -314, 77, 75, -29, 48])
('ECG', 1756399715579419848, [99, 75, 84, 82, 21, -7, -9, -36, -43, -29, -38, -58, -62, -70, -75, -67, -67, -82, -96, -116, -150, -186, -220, -261, -305, -341, -394, -452, -455, -423, -450, -515, -564, -568, -479, -394, -401, -423, -430, -428, -414, -430, -464, -464, -455, -472, -506, -539, -564, -600, -658, -694, -694, -748, -835, -898, -1193, -1551, -1469, -1268, -1346, -1423, -1319, -1208, -1227, -1261, -1166, -1053, -1028, -968, -842, -757, -677])
('ECG', 1756399716141129070, [-576, -491, -430, -418, -414, -404, -399, -372, -365, -401, -430, -450, -501, -530, -520, -556, -605, -583, -416, -29, 348, 186, -656, -1191, -828, -568, -745, -733, -639, -687, -682, -648, -702, -716, -644, -607, -602, -552, -469, -377, -322, -353, -375, -341, -338, -363, -368, -375, -394, -397, -365, -363, -469, -510, -387, -375, -481, -460, -360, -319, -273, -162, -150, -254, -237, -150, -171, -225, -256, -300, -331, -331, -329])
('ECG', 1756399716702828118, [-324, -326, -329, -322, -317, -322, -314, -305, -351, -368, -307, -305, -368, -375, -353, -360, -338, -300, -331, -372, -377, -389, -401, -392, -399, -418, -414, -401, -404, -423, -423, -397, -384, -389, -377, -382, -418, -438, -455, -481, -489, -476, -481, -515, -537, -384, 21, 387, 213, -539, -956, -622, -397, -525, -515, -433, -457, -467, -443, -450, -440, -399, -384, -394, -392, -382, -370, -358, -365, -384, -392, -401, -433])
('ECG', 1756399717264547512, [-421, -360, -365, -414, -418, -438, -503, -527, -522, -539, -544, -520, -532, -607, -631, -559, -510, -513, -503, -496, -520, -568, -619, -617, -568, -537, -539, -522, -435, -348, -334, -338, -355, -440, -472, -377, -353, -406, -418, -472, -685, -1043, -1246, -1212, -1048, -987, -1527, -2050, -1784, -1520, -1656, -1639, -1554, -1624, -1597, -1481, -1447, -1418, -1334, -1220, -1145, -1154, -1157, -1111, -1062, -1019, -927, -840, -857, -733, -259, 179, 46])
('ECG', 1756399717826241476, [-699, -1179, -694, -128, -249, -404, -152, 7, -89, -142, -140, -179, -254, -382, -411, -377, -709, -1130, -849, -65, 469, 663, 874, 973, 813, 769, 823, 748, 665, 614, 513, 394, 302, 273, 276, 205, 58, -38, -16, 4, -31, -65, -99, -133, -125, -116, -130, -154, -191, -244, -280, -292, -341, -404, -411, -394, -397, -401, -397, -394, -394, -416, -489, -614, -840, -1087, -1181, -1157, -1142, -1133, -1108, -1082, -1065])
('ECG', 1756399718387955782, [-1087, -1179, -1273, -1181, -898, -602, -530, -733, -944, -1133, -1196, -910, -658, -624, -663, -852, -1026, -997, -876, -653, -682, -1343, -1781, -1404, -1125, -1268, -1244, -1130, -1152, -1140, -1065, -1036, -1007, -958, -929, -900, -871, -849, -808, -762, -743, -731, -704, -690, -694, -702, -702, -699, -714, -731, -755, -786, -808, -811, -811, -808, -803, -796, -782, -767, -760, -743, -723, -716, -714, -702, -685, -677, -675, -670, -660, -660, -665])
('ECG', 1756399718949675178, [-656, -636, -646, -665, -660, -653, -658, -656, -656, -658, -660, -685, -682, -651, -699, -748, -719, -702, -706, -685, -658, -644, -639, -634, -634, -646, -658, -658, -646, -641, -641, -651, -682, -658, -394, 75, 355, -60, -912, -1101, -658, -559, -665, -578, -539, -583, -552, -503, -506, -503, -486, -472, -450, -430, -416, -401, -392, -380, -368, -370, -377, -384, -401, -426, -440, -460, -491, -525, -559, -583, -598, -607, -614])
('ECG', 1756399719511364054, [-614, -614, -617, -612, -598, -585, -583, -581, -573, -564, -556, -554, -549, -552, -564, -566, -549, -539, -554, -571, -561, -542, -542, -554, -561, -564, -559, -554, -556, -559, -547, -535, -520, -518, -525, -520, -525, -544, -544, -539, -535, -522, -532, -578, -593, -377, 128, 590, 435, -506, -1087, -697, -445, -595, -547, -462, -508, -496, -450, -457, -452, -423, -426, -426, -399, -382, -370, -346, -329, -329, -351, -370, -353])
('ECG', 1756399720073083448, [-360, -394, -401, -414, -472, -506, -506, -527, -561, -576, -556, -530, -542, -571, -566, -547, -532, -532, -530, -520, -513, -513, -508, -496, -481, -484, -503, -518, -510, -503, -503, -498, -489, -496, -510, -498, -491, -508, -508, -501, -522, -520, -486, -455, -438, -447, -467, -486, -501, -515, -532, -530, -486, -467, -532, -593, -450, 2, 513, 520, -292, -1048, -803, -421, -535, -561, -489, -552, -554, -489, -498, -501, -440])
('ECG', 1756399720634772324, [-433, -460, -426, -392, -387, -382, -387, -368, -343, -358, -363, -353, -355, -372, -443, -498, -484, -498, -527, -539, -576, -590, -593, -605, -568, -547, -585, -578, -544, -549, -549, -532, -515, -493, -513, -547, -532, -515, -525, -503, -496, -561, -576, -520, -522, -554, -547, -535, -525, -532, -549, -527, -520, -547, -515, -489, -522, -501, -450, -481, -532, -539, -527, -518, -518, -513, -522, -581, -559, -200, 411, 755, 188])
('ECG', 1756399721196491718, [-866, -1021, -520, -493, -622, -506, -472, -525, -486, -445, -452, -443, -416, -406, -401, -382, -353, -336, -331, -317, -300, -305, -329, -343, -346, -346, -353, -387, -440, -481, -506, -515, -532, -568, -568, -535, -535, -576, -581, -535, -527, -547, -530, -506, -503, -515, -508, -491, -496, -506, -491, -476, -496, -501, -484, -508, -537, -513, -496, -518, -530, -513, -498, -503, -518, -525, -513, -498, -503, -508, -513, -513, -518])
('ECG', 1756399721758180594, [-527, -508, -472, -460, -450, -457, -496, -503, -489, -503, -503, -469, -479, -520, -544, -527, -263, 302, 721, 338, -675, -1036, -559, -416, -600, -525, -435, -484, -457, -416, -450, -455, -418, -406, -394, -358, -324, -324, -338, -324, -302, -309, -319, -317, -329, -358, -370, -380, -426, -464, -481, -515, -537, -535, -542, -556, -549, -542, -544, -537, -530, -522, -515, -510, -496, -484, -479, -479, -481, -476, -460, -450, -464])
('ECG', 1756399722319894904, [-491, -484, -462, -462, -464, -472, -474, -462, -472, -472, -440, -428, -457, -469, -452, -443, -430, -430, -457, -457, -421, -416, -435, -428, -411, -421, -423, -414, -428, -433, -421, -423, -430, -430, -421, -404, -399, -411, -423, -438, -460, -462, -433, -426, -455, -467, -491, -518, -351, 101, 535, 435, -343, -893, -605, -355, -491, -501, -426, -440, -450, -423, -409, -401, -397, -377, -334, -319, -341, -331, -295, -300, -312])
('ECG', 1756399722881588866, [-290, -280, -292, -322, -363, -380, -389, -416, -430, -433, -464, -506, -530, -525, -476, -479, -532, -520, -508, -525, -476, -440, -460, -452, -421, -414, -421, -418, -411, -423, -447, -433, -409, -435, -464, -445, -438, -467, -467, -438, -457, -479, -445, -443, -486, -489, -467, -481, -493, -484, -474, -474, -484, -484, -476, -489, -486, -472, -486, -493, -467, -452, -460, -460, -457, -476, -474, -438, -428, -472, -479, -426, -401])
('ECG', 1756399723443293002, [-411, -418, -438, -467, -474, -467, -464, -469, -493, -530, -493, -278, 150, 532, 309, -525, -907, -537, -404, -583, -532, -447, -498, -503, -460, -464, -460, -421, -411, -421, -404, -372, -368, -377, -353, -324, -338, -343, -317, -326, -365, -380, -380, -397, -433, -469, -489, -503, -518, -518, -522, -549, -552, -525, -520, -525, -520, -522, -515, -491, -493, -527, -522, -489, -486, -506, -508, -503, -508, -508, -503, -513, -535])
('ECG', 1756399724004997136, [-527, -508, -508, -515, -510, -498, -513, -539, -539, -518, -481, -493, -527, -510, -496, -506, -496, -493, -515, -510, -484, -486, -491, -479, -479, -491, -503, -508, -503, -498, -496, -508, -530, -552, -472, -118, 387, 583, -7, -857, -857, -447, -491, -576, -452, -450, -515, -484, -438, -430, -423, -404, -372, -334, -322, -372, -411, -334, -246, -285, -353, -338, -319, -365, -399, -387, -399, -440, -467, -493, -525, -554, -564])
('ECG', 1756399724566691100, [-547, -535, -544, -564, -573, -561, -539, -535, -532, -513, -498, -506, -515, -503, -493, -486, -476, -467, -469, -496, -515, -508, -498, -493, -496, -493, -486, -491, -501, -493, -476, -489, -506, -489, -467, -479, -484, -455, -447, -469, -467, -457, -474, -469, -433, -418, -426, -411, -409, -435, -464, -469, -455, -447, -443, -447, -498, -460, -111, 418, 690, 176, -755, -866, -399, -406, -552, -426, -387, -467, -438, -377, -380])
('ECG', 1756399725128405406, [-370, -346, -355, -358, -331, -307, -292, -273, -266, -263, -254, -249, -256, -276, -297, -307, -322, -358, -414, -443, -457, -479, -481, -486, -508, -501, -491, -510, -510, -479, -464, -467, -450, -440, -452, -457, -455, -450, -443, -443, -443, -440, -452, -450, -445, -455, -464, -460, -457, -457, -462, -464, -460, -452, -455, -462, -443, -438, -462, -464, -452, -455, -455, -440, -443, -457, -452, -433, -433, -452, -450, -416, -404])
('ECG', 1756399725690094284, [-411, -401, -404, -428, -438, -430, -414, -418, -438, -455, -489, -452, -125, 421, 762, 319, -641, -874, -430, -382, -539, -455, -397, -445, -435, -387, -384, -392, -363, -334, -331, -329, -317, -295, -271, -263, -256, -254, -266, -280, -290, -285, -292, -341, -387, -399, -421, -464, -484, -484, -493, -501, -491, -486, -491, -493, -496, -486, -479, -479, -479, -469, -469, -467, -455, -447, -452, -460, -457, -445, -450, -469, -484])
('ECG', 1756399726251813678, [-486, -479, -469, -462, -464, -469, -472, -472, -469, -457, -445, -462, -486, -472, -445, -443, -455, -450, -433, -435, -435, -430, -438, -447, -457, -450, -421, -406, -421, -411, -370, -368, -406, -433, -440, -443, -438, -430, -443, -489, -472, -205, 322, 765, 496, -491, -936, -510, -365, -552, -467, -375, -447, -445, -389, -397, -397, -365, -348, -346, -338, -331, -322, -295, -254, -242, -256, -271, -285, -292, -295, -312, -343])
('ECG', 1756399726813502554, [-380, -406, -428, -452, -472, -493, -518, -513, -491, -491, -493, -484, -472, -467, -481, -491, -467, -438, -435, -447, -447, -457, -472, -460, -445, -450, -457, -460, -445, -435, -464, -481, -467, -467, -486, -479, -469, -464, -450, -455, -469, -472, -474, -472, -460, -457, -455, -450, -443, -438, -455, -472, -469, -464, -447, -438, -447, -440, -430, -452, -455, -428, -421, -418, -404, -401, -421, -438, -445, -443, -438, -435, -430])
('ECG', 1756399727375201604, [-460, -506, -375, 70, 595, 702, -16, -852, -740, -338, -440, -520, -409, -409, -443, -401, -377, -384, -372, -348, -346, -348, -334, -312, -290, -266, -261, -276, -268, -251, -268, -285, -300, -322, -348, -384, -418, -443, -467, -489, -484, -481, -498, -489, -472, -498, -510, -479, -457, -457, -464, -476, -467, -452, -457, -455, -440, -452, -467, -450, -443, -460, -462, -472, -491, -479, -457, -452, -460, -469, -467, -452, -447])
('ECG', 1756399727936910824, [-457, -472, -464, -443, -445, -452, -445, -443, -443, -438, -440, -445, -435, -421, -411, -416, -423, -418, -411, -399, -404, -423, -414, -392, -394, -382, -372, -401, -428, -409, -384, -411, -452, -472, -486, -351, 79, 583, 658, -67, -842, -694, -338, -462, -515, -397, -414, -443, -377, -370, -397, -370, -353, -358, -331, -307, -305, -290, -261, -254, -261, -254, -246, -263, -280, -290, -307, -338, -375, -397, -421, -460, -474])
('ECG', 1756399728498599702, [-474, -484, -493, -493, -486, -479, -481, -474, -457, -452, -460, -462, -443, -428, -443, -460, -450, -426, -418, -428, -440, -447, -447, -443, -450, -455, -447, -450, -457, -450, -435, -438, -457, -464, -455, -455, -445, -435, -445, -445, -433, -426, -418, -418, -428, -440, -438, -428, -418, -421, -426, -418, -404, -397, -397, -404, -423, -428, -414, -406, -406, -389, -372, -375, -384, -384, -389, -409, -421, -416, -411, -414, -430])
('ECG', 1756399729060314010, [-469, -443, -157, 358, 704, 334, -556, -840, -450, -370, -515, -433, -370, -438, -443, -389, -377, -380, -363, -348, -343, -331, -312, -292, -278, -268, -263, -268, -278, -271, -266, -297, -334, -341, -363, -397, -414, -440, -481, -481, -469, -491, -518, -513, -496, -484, -474, -464, -467, -467, -462, -445, -423, -423, -447, -467, -457, -438, -433, -438, -445, -457, -462, -455, -457, -462, -460, -450, -450, -447, -443, -445, -447])
('ECG', 1756399729622007972, [-440, -445, -447, -438, -443, -440, -430, -433, -433, -426, -423, -421, -418, -421, -418, -411, -406, -421, -433, -418, -406, -409, -409, -397, -387, -375, -377, -397, -399, -409, -447, -440, -406, -418, -452, -474, -421, -159, 302, 636, 297, -578, -854, -445, -363, -520, -445, -377, -414, -404, -387, -394, -372, -348, -341, -334, -322, -300, -268, -268, -280, -271, -256, -259, -268, -276, -288, -297, -312, -343, -382, -421, -460])
('ECG', 1756399730183696848, [-479, -481, -486, -481, -472, -479, -486, -474, -460, -457, -460, -455, -443, -443, -435, -421, -421, -423, -428, -435, -452, -452, -430, -430, -447, -435, -414, -418, -433, -435, -430, -428, -426, -428, -435, -433, -416, -406, -411, -414, -406, -389, -389, -421, -438, -416, -401, -397, -394, -404, -411, -406, -399, -394, -401, -411, -401, -397, -389, -377, -375, -368, -365, -380, -397, -411, -414, -401, -399, -418, -452, -435, -222])
('ECG', 1756399730745385724, [239, 629, 384, -462, -861, -498, -346, -503, -455, -375, -409, -411, -382, -365, -346, -338, -341, -341, -322, -295, -280, -266, -239, -225, -232, -237, -249, -259, -263, -283, -312, -326, -358, -404, -423, -428, -438, -447, -460, -462, -469, -484, -469, -438, -428, -438, -433, -421, -430, -428, -418, -421, -414, -409, -416, -414, -409, -426, -428, -421, -430, -433, -421, -418, -435, -440, -428, -421, -421, -423, -426, -421, -418])
('ECG', 1756399731307074600, [-430, -438, -433, -418, -411, -418, -416, -409, -414, -421, -418, -404, -399, -401, -397, -397, -387, -360, -351, -363, -380, -387, -387, -394, -404, -399, -392, -404, -430, -445, -317, 77, 535, 552, -167, -842, -639, -329, -460, -476, -360, -384, -414, -375, -365, -368, -341, -319, -326, -319, -290, -273, -271, -254, -239, -242, -239, -249, -266, -266, -278, -312, -334, -351, -382, -428, -452, -455, -472, -486, -481, -474, -474])
('ECG', 1756399731868793994, [-472, -464, -447, -433, -438, -440, -421, -418, -433, -426, -421, -428, -426, -411, -411, -428, -423, -406, -418, -428, -421, -428, -430, -421, -416, -421, -433, -430, -409, -404, -418, -418, -411, -409, -399, -401, -414, -409, -397, -399, -401, -399, -397, -401, -406, -394, -380, -377, -365, -353, -363, -384, -401, -404, -406, -418, -414, -406, -447, -447, -200, 273, 614, 317, -527, -857, -467, -343, -501, -440, -368, -406, -389])
('ECG', 1756399732430482872, [-370, -387, -370, -336, -326, -314, -288, -280, -280, -256, -242, -246, -244, -239, -244, -256, -266, -280, -302, -331, -377, -416, -430, -443, -455, -462, -467, -457, -447, -464, -476, -462, -457, -455, -428, -411, -421, -430, -430, -421, -416, -428, -438, -430, -428, -435, -426, -416, -435, -450, -433, -426, -433, -423, -409, -409, -414, -414, -416, -418, -411, -404, -411, -409, -392, -382, -394, -404, -394, -389, -394, -389, -370])
('ECG', 1756399732992171748, [-368, -368, -353, -353, -377, -392, -392, -394, -397, -397, -406, -455, -460, -222, 249, 600, 355, -445, -840, -491, -312, -457, -423, -338, -382, -392, -353, -355, -353, -326, -317, -309, -285, -256, -249, -249, -237, -222, -220, -215, -215, -242, -261, -261, -288, -331, -348, -363, -399, -428, -430, -440, -464, -472, -474, -481, -455, -423, -423, -433, -421, -416, -428, -418, -401, -416, -428, -411, -416, -433, -430, -426, -430])
('ECG', 1756399733553860624, [-435, -433, -433, -438, -435, -426, -428, -430, -426, -414, -418, -423, -414, -414, -418, -409, -392, -394, -409, -406, -394, -394, -384, -353, -346, -353, -346, -351, -368, -389, -401, -401, -387, -368, -392, -438, -336, 24, 460, 532, -111, -823, -677, -319, -404, -447, -341, -353, -397, -360, -338, -348, -326, -307, -314, -302, -268, -251, -246, -232, -213, -213, -217, -220, -234, -246, -254, -268, -297, -338, -377, -411, -440])
('ECG', 1756399734115549500, [-447, -443, -460, -472, -452, -433, -447, -469, -460, -447, -445, -445, -445, -428, -416, -426, -421, -404, -404, -421, -445, -457, -452, -452, -450, -443, -438, -443, -450, -443, -438, -445, -443, -438, -452, -455, -450, -452, -435, -421, -438, -447, -433, -426, -414, -392, -392, -401, -397, -394, -409, -418, -418, -414, -404, -411, -464, -479, -285, 154, 539, 384, -392, -878, -561, -326, -460, -438, -355, -399, -404, -365, -363])
('ECG', 1756399734677243464, [-353, -329, -329, -317, -288, -268, -268, -263, -239, -220, -217, -217, -222, -249, -268, -271, -283, -319, -368, -394, -418, -452, -464, -452, -450, -460, -467, -460, -443, -438, -455, -462, -452, -440, -433, -428, -428, -426, -426, -426, -426, -438, -445, -445, -450, -455, -450, -440, -435, -443, -445, -435, -438, -450, -452, -452, -452, -445, -440, -435, -426, -430, -450, -450, -438, -423, -399, -389, -399, -406, -411, -421, -435])
('ECG', 1756399735238957770, [-443, -445, -443, -457, -491, -440, -147, 326, 605, 179, -690, -866, -438, -380, -501, -416, -382, -421, -394, -363, -358, -360, -351, -319, -309, -312, -295, -273, -254, -237, -230, -234, -234, -237, -256, -271, -280, -314, -358, -384, -401, -433, -464, -464, -452, -462, -476, -472, -464, -474, -464, -430, -423, -445, -450, -438, -430, -428, -438, -445, -438, -430, -435, -443, -443, -452, -460, -443, -426, -438, -455, -460, -450])
('ECG', 1756399735800641562, [-440, -435, -433, -435, -443, -440, -428, -418, -411, -416, -435, -430, -423, -430, -409, -380, -382, -384, -389, -414, -416, -401, -414, -418, -406, -443, -489, -382, -16, 445, 581, -19, -801, -738, -338, -401, -484, -380, -363, -399, -380, -358, -355, -341, -317, -297, -288, -280, -266, -239, -222, -220, -222, -222, -222, -227, -242, -251, -271, -307, -338, -365, -397, -421, -421, -423, -452, -462, -443, -445, -452, -438, -433])
('ECG', 1756399736362335524, [-430, -416, -404, -409, -423, -428, -416, -409, -416, -430, -443, -433, -406, -409, -426, -421, -411, -423, -430, -421, -421, -433, -438, -418, -406, -409, -406, -414, -428, -409, -392, -409, -423, -409, -392, -372, -372, -380, -377, -387, -409, -414, -409, -404, -406, -426, -452, -438, -246, 184, 583, 372, -476, -886, -493, -317, -489, -435, -331, -384, -397, -348, -338, -341, -329, -314, -302, -280, -251, -242, -244, -220, -191])
('ECG', 1756399736924024400, [-200, -220, -222, -232, -251, -249, -263, -307, -343, -363, -375, -399, -423, -440, -445, -438, -418, -406, -416, -426, -416, -394, -394, -397, -375, -380, -406, -397, -377, -394, -406, -399, -401, -404, -389, -394, -421, -416, -399, -411, -418, -416, -416, -406, -399, -414, -411, -389, -401, -421, -411, -406, -411, -404, -382, -363, -363, -363, -363, -384, -411, -411, -394, -387, -394, -409, -435, -452, -288, 150, 554, 384, -406])
('ECG', 1756399737485713276, [-869, -535, -314, -450, -426, -351, -392, -384, -338, -346, -348, -322, -305, -297, -278, -254, -237, -230, -217, -203, -200, -215, -220, -220, -239, -259, -276, -297, -324, -360, -401, -426, -426, -423, -447, -464, -455, -435, -421, -411, -418, -423, -406, -394, -409, -421, -421, -404, -392, -406, -423, -426, -421, -428, -435, -423, -418, -428, -426, -426, -433, -435, -438, -428, -414, -418, -433, -426, -409, -409, -421, -406, -387])
('ECG', 1756399738047402152, [-401, -404, -380, -372, -384, -397, -399, -404, -414, -416, -406, -409, -445, -457, -261, 188, 571, 360, -455, -878, -525, -331, -457, -421, -358, -394, -394, -358, -348, -334, -300, -285, -297, -302, -276, -251, -239, -217, -200, -191, -186, -203, -237, -259, -254, -239, -259, -324, -375, -384, -392, -414, -416, -409, -426, -430, -411, -401, -401, -392, -380, -368, -360, -363, -363, -358, -360, -372, -370, -368, -380, -382, -372])
('ECG', 1756399738609091030, [-365, -360, -363, -375, -394, -384, -365, -368, -368, -355, -346, -360, -384, -392, -387, -377, -365, -365, -370, -355, -331, -346, -387, -384, -375, -387, -392, -399, -421, -450, -406, -130, 324, 535, 67, -694, -786, -411, -372, -464, -389, -372, -406, -375, -363, -375, -355, -341, -329, -307, -297, -290, -268, -256, -251, -239, -225, -217, -230, -251, -254, -261, -280, -290, -322, -380, -411, -423, -440, -447, -435, -438, -445])
('ECG', 1756399739170779906, [-428, -404, -411, -418, -389, -389, -418, -397, -355, -365, -375, -341, -351, -418, -445, -409, -387, -392, -387, -375, -380, -387, -387, -401, -406, -394, -389, -397, -394, -382, -384, -409, -404, -363, -360, -380, -375, -365, -382, -421, -443, -416, -394, -416, -430, -440, -372, -65, 375, 486, -121, -835, -723, -338, -414, -493, -372, -346, -389, -387, -372, -358, -348, -338, -305, -288, -302, -280, -244, -239, -239, -230, -225])
('ECG', 1756399739732468782, [-227, -237, -251, -266, -273, -297, -346, -392, -409, -414, -435, -445, -450, -455, -440, -426, -435, -428, -406, -421, -428, -404, -416, -430, -399, -392, -423, -426, -409, -411, -411, -404, -428, -450, -428, -411, -423, -430, -421, -411, -414, -428, -447, -440, -416, -411, -399, -382, -392, -394, -392, -401, -404, -411, -428, -418, -399, -426, -481, -450, -200, 251, 547, 196, -602, -842, -464, -351, -457, -399, -343, -372, -372])
('ECG', 1756399740294157658, [-353, -341, -322, -319, -324, -300, -278, -268, -246, -227, -222, -217, -222, -225, -220, -225, -234, -249, -283, -309, -326, -365, -409, -414, -397, -399, -397, -392, -406, -401, -380, -380, -375, -355, -353, -365, -380, -382, -368, -375, -389, -372, -360, -384, -399, -375, -358, -372, -384, -380, -392, -433, -435, -414, -421, -426, -409, -394, -404, -411, -387, -377, -401, -409, -416, -443, -445, -421, -411, -423, -440, -476, -464])
('ECG', 1756399740855846534, [-208, 249, 481, 82, -651, -794, -416, -338, -438, -380, -348, -389, -368, -324, -324, -322, -285, -263, -271, -259, -237, -230, -225, -210, -198, -191, -203, -217, -225, -232, -82, 682, 1498, 1317, 934, 1070, 1072, 874, 832, 818, 743, 723, 719, 651, 590, 585, 639, 697, 651, 520, 435, 462, 472, 375, 280, 266, 290, 285, 246, 225, 208, 169, 128, 111, 106, 82, 38, -12, -33, -29, -41, -60, -60])
('ECG', 1756399741417540498, [-58, -60, -58, -67, -94, -125, -162, -176, -157, -147, -169, -186, -217, -230, -48, 336, 612, 358, -363, -687, -365, -237, -399, -399, -358, -346, -280, -440, -1254, -2101, -1970, -1595, -1685, -1663, -1476, -1442, -1418, -1324, -1266, -1227, -1181, -1147, -1123, -1094, -1074, -1065, -1070, -1062, -1048, -1048, -1053, -1036, -1004, -978, -951, -903, -859, -828, -813, -842, -835, -765, -745, -779, -760, -728, -733, -716, -685, -685, -687, -665, -648])
('ECG', 1756399741979224288, [-648, -641, -624, -619, -610, -598, -588, -571, -564, -576, -564, -527, -508, -510, -496, -479, -496, -513, -501, -493, -496, -489, -479, -501, -532, -426, -58, 399, 484, -174, -910, -779, -392, -421, -445, -387, -421, -423, -380, -372, -370, -343, -326, -322, -305, -280, -271, -263, -242, -230, -239, -230, -29, 457, 939, 1084, 973, 907, 898, 815, 728, 677, 617, 566, 527, 489, 469, 455, 430, 414, 397, 363, 334])
('ECG', 1756399742540913164, [307, 273, 230, 208, 208, 184, 150, 157, 147, 104, 72, 58, 41, 38, 43, 14, -31, -41, -29, -43, -79, -96, -89, -99, -111, -84, -46, -21, -16, -31, -55, -70, -72, -70, -67, -67, -79, -123, -123, 99, 537, 828, 498, -302, -576, -213, -125, -276, -225, -169, -208, -203, -181, -200, -198, -176, -184, -186, -162, -152, -145, -116, -89, -84, -79, -138, -469, -774, -840, -1227, -1716, -1750, -1634])
('ECG', 1756399743102622386, [-1641, -1639, -1573, -1527, -1493, -1452, -1404, -1355, -1309, -1261, -1225, -1188, -1137, -1099, -1074, -1041, -999, -973, -949, -920, -895, -881, -864, -844, -832, -815, -794, -769, -748, -738, -728, -709, -697, -680, -656, -646, -639, -636, -634, -619, -590, -564, -556, -552, -527, -518, -537, -539, -530, -522, -515, -510, -522, -554, -537, -87, 1186, 2237, 1755, 711, 537, 842, 811, 648, 658, 636, 561, 544, 530, 358, 65, 179, 585])
('ECG', 1756399743664306176, [518, 317, 404, 421, 341, 341, 334, 285, 261, 244, 210, 184, 162, 138, 106, 65, 14, -65, -414, -1162, -1694, -1600, -1445, -1491, -1440, -1334, -1307, -1283, -1225, -1183, -1157, -1118, -1074, -1045, -1024, -995, -866, -164, 760, 585, -583, -1254, -624, 460, 723, 399, 384, 503, 382, 297, 312, 266, 213, 198, 164, 123, 108, 87, 53, 38, 26, 19, 21, 21, 2, -16, -33, -79, -113, -111, -113, -130, -152])
('ECG', 1756399744225989966, [-208, -278, -249, 12, 447, 711, 384, -341, -544, -205, -147, -273, -225, -208, -280, -283, -324, -496, -600, -949, -1595, -1617, -1275, -1336, -1377, -1208, -1082, -990, -934, -985, -1026, -987, -958, -963, -951, -961, -999, -1004, -980, -968, -956, -941, -927, -905, -876, -852, -823, -801, -782, -760, -736, -709, -697, -699, -677, -656, -660, -646, -622, -619, -607, -588, -590, -605, -593, -581, -578, -566, -559, -561, -554, -539, -535])
('ECG', 1756399744787673756, [-530, -515, -513, -518, -513, -503, -503, -496, -476, -455, -438, -428, -428, -440, -452, -457, -457, -443, -443, -455, -472, -498, -421, -79, 394, 542, -48, -813, -750, -355, -404, -476, -372, -368, -404, -370, -351, -355, -338, -317, -312, -300, -280, -263, -251, -232, -208, -208, -222, -220, -176, -169, -259, -288, -55, 94, -259, -527, -394, -384, -496, -474, -445, -467, -450, -421, -421, -416, -392, -375, -358, -324, -314])
('ECG', 1756399745349357546, [-336, -358, -334, -232, -118, 4, 503, 1084, 980, 733, 837, 837, 716, 699, 685, 631, 607, 578, 535, 496, 460, 423, 389, 368, 346, 314, 288, 280, 273, 234, 181, 145, 118, 70, 38, 41, 29, 9, -2, -29, -62, -12, 276, 709, 847, 309, -397, -372, -33, -84, -171, -89, -101, -154, -121, -99, -130, -147, -125, -99, -104, -113, -106, -96, -96, -92, -72, -41, -7, 2, -31, -60, -84])
('ECG', 1756399745911046422, [-278, -752, -1225, -1375, -1346, -1334, -1321, -1297, -1271, -1232, -1188, -1159, -1135, -1087, -1038, -1021, -1012, -985, -939, -917, -907, -878, -847, -844, -852, -837, -813, -801, -786, -767, -748, -728, -726, -719, -699, -680, -663, -644, -636, -634, -619, -600, -588, -585, -578, -571, -568, -552, -530, -515, -501, -489, -481, -489, -510, -513, -496, -489, -496, -506, -518, -542, -435, -75, 346, 389, -227, -857, -692, -358, -460, -518, -406])
('ECG', 1756399746472735298, [-401, -440, -406, -384, -389, -377, -363, -358, -343, -324, -292, -273, -268, -259, -246, -244, -249, -261, -273, -280, -300, -324, -341, -360, -397, -423, -414, -404, -426, -447, -452, -452, -443, -428, -426, -430, -423, -447, -464, -399, -380, -445, -498, -515, -493, -474, -503, -539, -549, -535, -525, -518, -513, -515, -508, -496, -496, -493, -479, -469, -469, -452, -433, -447, -460, -438, -418, -411, -397, -380, -389, -421, -438])
('ECG', 1756399747034424174, [-443, -445, -440, -428, -423, -435, -472, -481, -302, 123, 496, 336, -428, -893, -559, -312, -440, -428, -343, -365, -372, -336, -329, -331, -307, -290, -290, -273, -249, -239, -234, -208, -152, -106, -140, -203, -217, -232, -263, -266, -254, -259, -288, -324, -346, -372, -353, -246, -58, 75, -101, -397, -455, -401, -423, -455, -450, -438, -428, -421, -421, -416, -414, -416, -409, -397, -414, -416, -384, -380, -387, -380, -375])
('ECG', 1756399747596113050, [-363, -317, -184, -38, -21, 62, 227, 171, 140, 355, 457, 392, 384, 397, 363, 314, 290, 292, 300, 288, 276, 295, 290, 220, 295, 617, 864, 733, 125, -467, -370, -77, -181, -295, -256, -353, -440, -346, -351, -496, -522, -445, -406, -341, -273, -285, -266, -203, -196, -196, -46, 254, 443, 445, 440, 171, -522, -469, 464, 568, 113, 220, 305, 96, 70, 113, 7, -116, -242, -406, -491, -518, -668])
('ECG', 1756399748157801926, [-825, -864, -871, -844, -811, -852, -869, -818, -791, -806, -808, -794, -784, -765, -731, -716, -697, -660, -634, -622, -593, -561, -552, -522, -489, -506, -513, -450, -409, -464, -501, -462, -455, -489, -486, -469, -486, -489, -467, -472, -510, -460, -145, 300, 443, -70, -779, -772, -397, -418, -515, -423, -411, -460, -423, -389, -394, -382, -375, -380, -363, -336, -329, -314, -280, -278, -285, -263, -232, -249, -302, -317, -312])
('ECG', 1756399748719460286, [-336, -348, -348, -377, -416, -418, -380, -338, -331, -326, -266, -140, -4, 67, 99, 154, 208, 191, 142, 84, 14, 31, 82, 4, -79, -36, -36, -135, -174, -171, -421, -886, -825, -372, -532, -982, -951, -794, -852, -886, -844, -835, -830, -794, -765, -745, -719, -702, -697, -694, -692, -680, -663, -656, -646, -631, -644, -660, -532, -154, 263, 251, -426, -1021, -784, -452, -561, -593, -479, -486, -506, -457, -440])
('ECG', 1756399749281149162, [-443, -411, -392, -394, -375, -338, -319, -307, -292, -280, -273, -273, -285, -295, -302, -312, -324, -343, -372, -401, -426, -445, -457, -462, -460, -460, -455, -438, -426, -430, -423, -406, -409, -414, -406, -399, -399, -397, -389, -397, -397, -368, -271, -55, -14, -300, -467, -404, -380, -384, -341, -193, 99, 142, -256, -276, 266, 392, 174, 242, 319, 225, 205, 232, 179, 123, 101, 75, 41, 24, 21, 7, -48])
('ECG', 1756399749842838038, [-29, 249, 697, 876, 351, -423, -481, -133, -147, -217, -118, -118, -164, -142, -133, -133, -116, -111, -128, -123, -125, -164, -108, -2, -9, -43, -24, -12, 2, 26, 9, -41, -94, -145, -142, -94, -75, -101, -125, -142, -179, -210, -227, -251, -266, -307, -365, -351, -334, -353, -326, -305, -334, -355, -363, -370, -394, -445, -491, -537, -573, -581, -581, -532, -426, -394, -440, -414, -360, -355, -307, -244, -251])
('ECG', 1756399750404526914, [-283, -302, -305, -278, -227, -213, -222, -203, -193, -227, -251, -268, -336, -438, -539, -641, -721, -738, -653, -363, 16, 21, -622, -1242, -1084, -774, -888, -956, -844, -813, -823, -786, -755, -736, -702, -658, -518, -48, 428, 372, 208, 295, 305, 232, 242, 242, 188, 164, 147, 104, 75, 55, 24, 4, -7, -36, -62, -67, -82, -92, -89, -84, -89, -104, -116, -125, -140, -142, -140, -150, -159, -164, -174])
('ECG', 1756399750966215790, [-188, -200, -200, -191, -203, -225, -230, -227, -232, -249, -256, -259, -271, -288, -285, -278, -292, -297, -285, -288, -305, -305, -307, -312, -297, -278, -266, -263, -276, -290, -317, -341, -351, -363, -368, -351, -341, -343, -329, -169, 210, 568, 460, -225, -692, -418, -179, -307, -314, -239, -273, -276, -234, -227, -227, -215, -213, -215, -203, -186, -174, -169, -152, -142, -157, -164, -157, -169, -191, -193, -208, -276, -358])
('ECG', 1756399751527874148, [-348, -297, -322, -368, -365, -351, -355, -360, -355, -351, -343, -336, -331, -324, -322, -331, -341, -343, -520, -1104, -1513, -949, -154, -142, -375, -278, -234, -334, -329, -302, -343, -363, -353, -365, -380, -375, -370, -365, -365, -372, -377, -394, -423, -433, -421, -414, -406, -397, -404, -406, -392, -392, -399, -401, -404, -397, -387, -375, -351, -348, -372, -416, -428, -230, 184, 387, -113, -767, -619, -530, -1198, -1428, -1067])
('ECG', 1756399752089563024, [-1009, -1014, -854, -920, -1043, -956, -876, -874, -835, -782, -748, -714, -685, -651, -617, -605, -605, -593, -583, -578, -566, -566, -595, -619, -631, -639, -646, -653, -653, -639, -619, -607, -598, -593, -573, -549, -547, -549, -537, -525, -520, -515, -506, -506, -506, -496, -493, -498, -493, -489, -491, -489, -481, -486, -481, -472, -474, -472, -460, -450, -445, -443, -452, -457, -445, -440, -447, -440, -409, -387, -394, -384, -363])
('ECG', 1756399752651251902, [-382, -423, -421, -401, -406, -416, -409, -421, -460, -355, 36, 491, 503, -205, -881, -668, -307, -406, -438, -329, -346, -368, -322, -307, -312, -297, -276, -263, -256, -246, -222, -203, -193, -184, -188, -196, -191, -196, -215, -230, -244, -261, -283, -314, -353, -370, -370, -377, -387, -389, -384, -370, -358, -353, -348, -346, -348, -348, -343, -343, -343, -336, -336, -338, -331, -331, -331, -329, -334, -338, -338, -338, -343])
('ECG', 1756399753212930606, [-341, -341, -343, -338, -338, -331, -329, -343, -343, -331, -338, -346, -334, -324, -322, -309, -295, -295, -290, -288, -312, -331, -322, -326, -341, -331, -329, -355, -377, -256, 125, 542, 496, -171, -714, -486, -208, -338, -377, -280, -290, -312, -273, -251, -251, -249, -230, -181, -167, -193, -181, -154, -150, -130, -106, -116, -147, -159, -147, -152, -186, -215, -246, -283, -302, -324, -353, -370, -372, -368, -360, -353, -346])
('ECG', 1756399753774599136, [-346, -348, -336, -329, -324, -314, -305, -305, -326, -324, -300, -309, -319, -307, -312, -317, -307, -322, -326, -300, -297, -317, -317, -322, -324, -312, -309, -309, -302, -309, -326, -329, -312, -302, -297, -273, -263, -273, -288, -309, -324, -314, -322, -353, -346, -322, -353, -389, -220, 222, 590, 399, -338, -721, -397, -234, -394, -370, -285, -336, -368, -322, -302, -312, -302, -280, -276, -263, -237, -222, -222, -217, -210])
('ECG', 1756399754336288012, [-210, -215, -220, -230, -244, -261, -278, -305, -341, -370, -394, -416, -428, -430, -428, -428, -435, -435, -418, -411, -411, -409, -404, -401, -397, -399, -401, -399, -399, -404, -404, -406, -414, -414, -411, -416, -421, -421, -423, -416, -406, -414, -421, -418, -409, -406, -416, -421, -421, -421, -406, -387, -382, -382, -372, -384, -411, -418, -401, -394, -401, -401, -399, -418, -438, -295, 99, 462, 322, -401, -861, -542, -290])
('ECG', 1756399754897946370, [-430, -433, -336, -355, -372, -341, -331, -331, -307, -297, -297, -271, -239, -234, -232, -213, -205, -213, -208, -203, -217, -239, -254, -266, -292, -326, -360, -387, -406, -423, -430, -428, -433, -435, -423, -414, -418, -411, -394, -392, -397, -389, -384, -389, -392, -392, -387, -382, -387, -394, -392, -392, -401, -406, -399, -392, -389, -394, -399, -401, -404, -397, -392, -394, -380, -360, -351, -351, -365, -384, -387, -380, -368])
('ECG', 1756399755459635246, [-358, -363, -382, -401, -411, -261, 162, 576, 433, -384, -903, -552, -271, -397, -384, -305, -343, -341, -290, -290, -297, -280, -266, -249, -234, -227, -210, -203, -196, -184, -184, -186, -200, -217, -217, -227, -261, -285, -309, -351, -377, -377, -384, -406, -411, -411, -411, -397, -384, -399, -406, -389, -370, -368, -377, -382, -377, -375, -375, -370, -370, -375, -377, -375, -372, -375, -380, -382, -377, -380, -384, -377, -370])
('ECG', 1756399756021293606, [-372, -382, -380, -365, -355, -348, -334, -324, -324, -338, -355, -360, -363, -360, -360, -363, -372, -397, -300, 82, 552, 581, -133, -832, -622, -256, -370, -409, -290, -305, -346, -309, -285, -288, -276, -263, -251, -239, -225, -205, -191, -186, -179, -169, -169, -179, -198, -213, -220, -239, -278, -312, -334, -358, -389, -406, -409, -411, -418, -418, -411, -401, -389, -382, -380, -372, -365, -365, -358, -353, -358, -363, -358])
('ECG', 1756399756582982482, [-363, -370, -365, -363, -368, -365, -365, -372, -375, -363, -348, -353, -363, -358, -351, -353, -358, -360, -368, -360, -338, -329, -322, -309, -305, -317, -334, -346, -346, -341, -343, -346, -351, -384, -411, -249, 184, 612, 532, -249, -835, -522, -225, -387, -406, -300, -324, -343, -307, -305, -302, -271, -259, -266, -251, -222, -210, -198, -184, -188, -191, -184, -188, -203, -210, -222, -254, -288, -314, -341, -370, -387, -401])
('ECG', 1756399757144656100, [-418, -418, -404, -401, -406, -397, -387, -387, -372, -355, -358, -346, -334, -346, -353, -353, -346, -346, -353, -353, -346, -348, -353, -353, -353, -358, -355, -348, -353, -353, -355, -358, -351, -351, -355, -348, -343, -351, -353, -343, -343, -348, -351, -343, -338, -334, -322, -307, -307, -307, -307, -324, -348, -355, -348, -346, -348, -358, -394, -397, -169, 309, 673, 389, -450, -784, -382, -244, -416, -372, -297, -348, -346])
('ECG', 1756399757706329716, [-305, -302, -302, -278, -261, -251, -237, -222, -210, -198, -191, -188, -184, -181, -191, -210, -222, -230, -249, -276, -309, -343, -363, -380, -394, -392, -389, -399, -401, -389, -380, -377, -375, -368, -351, -343, -346, -348, -346, -343, -334, -334, -343, -346, -346, -343, -343, -348, -348, -348, -348, -348, -351, -353, -353, -348, -346, -343, -348, -351, -346, -338, -338, -338, -331, -329, -331, -331, -324, -319, -324, -319, -317])
('ECG', 1756399758268018592, [-324, -329, -322, -314, -324, -329, -319, -314, -322, -324, -324, -317, -302, -292, -295, -297, -283, -288, -309, -329, -334, -329, -326, -336, -363, -394, -297, 82, 564, 653, 14, -692, -561, -215, -334, -414, -302, -305, -343, -307, -290, -297, -283, -266, -254, -234, -222, -217, -205, -188, -186, -184, -179, -184, -198, -210, -217, -225, -246, -280, -305, -319, -331, -353, -370, -375, -377, -377, -375, -365, -360, -358, -355])
('ECG', 1756399758829676952, [-351, -346, -346, -346, -341, -338, -343, -338, -338, -341, -336, -336, -346, -351, -351, -351, -353, -355, -348, -343, -351, -355, -351, -346, -343, -346, -346, -343, -346, -346, -341, -336, -341, -341, -334, -331, -338, -338, -334, -334, -331, -329, -326, -324, -324, -331, -334, -322, -314, -317, -319, -319, -319, -305, -288, -285, -288, -273, -268, -295, -324, -319, -302, -307, -319, -331, -368, -297, 55, 520, 631, 50, -653])
('ECG', 1756399759391365828, [-576, -220, -300, -387, -288, -280, -319, -283, -266, -276, -254, -234, -230, -215, -198, -193, -181, -162, -164, -169, -162, -169, -186, -196, -208, -227, -239, -259, -290, -314, -329, -343, -360, -370, -368, -370, -370, -360, -353, -348, -343, -338, -338, -331, -324, -324, -326, -329, -334, -331, -329, -326, -329, -336, -341, -334, -331, -341, -343, -336, -336, -343, -341, -336, -334, -338, -343, -338, -331, -329, -326, -326, -322])
('ECG', 1756399759953054704, [-312, -312, -312, -312, -312, -309, -305, -307, -309, -297, -290, -302, -305, -297, -295, -297, -297, -300, -305, -300, -273, -263, -271, -268, -266, -285, -309, -314, -312, -307, -302, -319, -360, -309, -2, 460, 636, 128, -607, -612, -237, -268, -375, -292, -278, -312, -285, -268, -273, -259, -244, -230, -213, -213, -205, -184, -171, -171, -169, -162, -164, -179, -193, -210, -222, -234, -259, -288, -312, -324, -336, -351, -363])
('ECG', 1756399760514728322, [-370, -370, -363, -355, -351, -343, -341, -338, -336, -338, -336, -322, -319, -324, -322, -317, -317, -322, -322, -319, -319, -324, -326, -319, -319, -322, -322, -322, -319, -319, -322, -322, -317, -314, -317, -322, -319, -312, -307, -307, -309, -312, -312, -307, -302, -305, -307, -307, -305, -305, -309, -312, -309, -297, -276, -268, -273, -271, -278, -297, -309, -314, -309, -302, -312, -338, -375, -305, 29, 474, 593, 36, -665])
('ECG', 1756399761076401938, [-607, -237, -292, -384, -285, -280, -324, -288, -261, -271, -263, -244, -232, -217, -205, -191, -176, -164, -152, -140, -140, -152, -164, -181, -196, -200, -217, -251, -288, -314, -331, -336, -343, -360, -368, -365, -365, -360, -351, -338, -322, -324, -343, -341, -324, -319, -322, -322, -326, -331, -324, -314, -319, -324, -326, -341, -343, -334, -338, -343, -341, -336, -336, -341, -338, -314, -309, -346, -363, -338, -326, -334, -326])
('ECG', 1756399761638090814, [-317, -326, -336, -324, -314, -319, -322, -326, -317, -295, -297, -300, -278, -273, -290, -292, -307, -341, -336, -309, -319, -346, -372, -314, -9, 423, 554, 31, -675, -665, -283, -292, -375, -278, -266, -317, -290, -254, -261, -263, -246, -232, -225, -208, -188, -181, -179, -159, -145, -154, -171, -179, -184, -193, -213, -237, -256, -292, -348, -372, -365, -380, -404, -399, -392, -401, -389, -368, -375, -380, -360, -351, -348])
('ECG', 1756399762199749172, [-355, -375, -368, -343, -338, -348, -348, -341, -341, -336, -329, -331, -329, -343, -358, -334, -329, -355, -351, -324, -336, -351, -336, -322, -322, -331, -338, -322, -312, -329, -331, -305, -283, -273, -268, -283, -297, -309, -322, -326, -317, -314, -329, -358, -363, -179, 263, 646, 426, -404, -813, -438, -237, -372, -331, -254, -297, -305, -268, -256, -249, -232, -227, -210, -184, -179, -181, -162, -130, -116, -116, -128, -140])
('ECG', 1756399762761438050, [-140, -147, -169, -188, -220, -271, -305, -309, -317, -346, -368, -363, -351, -355, -365, -363, -341, -326, -336, -334, -326, -326, -329, -319, -324, -341, -338, -334, -338, -338, -331, -326, -341, -348, -334, -329, -341, -341, -336, -338, -338, -338, -348, -343, -322, -319, -336, -338, -331, -329, -326, -322, -307, -280, -276, -288, -292, -292, -309, -314, -295, -295, -312, -317, -329, -351, -205, 225, 612, 435, -307, -719, -401])
('ECG', 1756399763323096408, [-203, -343, -331, -256, -292, -295, -246, -244, -251, -232, -220, -213, -193, -174, -162, -152, -142, -140, -138, -133, -152, -169, -174, -191, -215, -237, -268, -307, -338, -353, -360, -365, -375, -380, -377, -372, -365, -355, -353, -351, -346, -343, -336, -334, -338, -334, -329, -329, -331, -341, -341, -331, -326, -331, -336, -331, -319, -322, -334, -334, -331, -336, -338, -336, -334, -336, -331, -329, -329, -331, -329, -326, -314])
('ECG', 1756399763884785284, [-300, -288, -283, -280, -285, -307, -326, -331, -324, -314, -312, -329, -360, -353, -164, 244, 583, 355, -404, -750, -392, -225, -370, -336, -271, -307, -300, -273, -278, -266, -239, -232, -220, -205, -198, -184, -162, -145, -142, -145, -145, -145, -159, -176, -188, -215, -244, -276, -302, -326, -355, -382, -387, -384, -389, -384, -370, -368, -375, -370, -360, -360, -358, -346, -334, -334, -341, -341, -336, -343, -351, -346, -343])
('ECG', 1756399764446443642, [-351, -353, -348, -348, -358, -358, -351, -355, -365, -358, -346, -348, -353, -351, -348, -343, -346, -351, -346, -338, -341, -334, -312, -305, -305, -290, -300, -334, -348, -346, -336, -322, -324, -363, -399, -314, 19, 462, 583, 7, -726, -668, -278, -309, -384, -283, -268, -314, -288, -251, -246, -239, -230, -225, -210, -191, -174, -154, -145, -142, -128, -123, -138, -147, -157, -176, -196, -215, -251, -292, -314, -338, -363])
('ECG', 1756399765008132518, [-370, -375, -377, -375, -375, -370, -360, -353, -343, -341, -343, -334, -326, -329, -322, -319, -326, -326, -319, -314, -319, -322, -324, -326, -331, -336, -334, -331, -331, -334, -331, -322, -319, -319, -314, -314, -317, -317, -314, -312, -307, -309, -309, -295, -278, -266, -261, -254, -259, -285, -297, -295, -300, -300, -292, -302, -346, -341, -113, 338, 663, 365, -440, -726, -331, -210, -365, -314, -239, -276, -283, -261, -254])
('ECG', 1756399765569790878, [-239, -217, -210, -196, -167, -150, -147, -130, -111, -94, -67, -41, -7, 70, 125, 82, 14, -53, -159, -268, -329, -358, -377, -384, -382, -382, -380, -375, -368, -360, -355, -355, -351, -343, -338, -329, -324, -329, -326, -322, -322, -322, -324, -329, -329, -334, -331, -319, -319, -331, -331, -324, -322, -329, -331, -322, -322, -326, -324, -324, -322, -312, -312, -317, -319, -319, -317, -314, -309, -300, -280, -266, -259])
('ECG', 1756399766131479754, [-256, -273, -300, -307, -305, -295, -285, -292, -324, -341, -174, 244, 627, 501, -225, -697, -401, -174, -322, -326, -239, -271, -283, -242, -232, -230, -213, -203, -188, -164, -157, -152, -140, -125, -108, -101, -108, -118, -128, -147, -167, -176, -203, -242, -271, -290, -314, -336, -343, -343, -338, -331, -336, -336, -322, -324, -329, -317, -309, -312, -302, -302, -305, -300, -297, -307, -312, -309, -312, -322, -329, -334, -338])
('ECG', 1756399766693158458, [-341, -336, -334, -336, -341, -338, -336, -341, -346, -334, -319, -324, -326, -322, -319, -326, -331, -319, -312, -324, -326, -334, -348, -346, -331, -322, -314, -319, -324, -329, -346, -360, -355, -351, -353, -351, -377, -414, -297, 75, 489, 506, -138, -760, -568, -239, -353, -404, -300, -312, -331, -285, -278, -288, -268, -242, -225, -217, -213, -198, -176, -162, -152, -150, -152, -164, -171, -176, -188, -213, -244, -273, -309])
('ECG', 1756399767254826988, [-348, -363, -360, -375, -394, -394, -389, -387, -377, -370, -375, -370, -355, -343, -338, -343, -348, -348, -341, -341, -336, -331, -336, -336, -341, -346, -348, -348, -348, -343, -341, -338, -336, -336, -338, -329, -324, -334, -331, -322, -326, -324, -309, -309, -314, -314, -317, -317, -317, -312, -295, -276, -271, -273, -261, -261, -292, -309, -300, -290, -295, -297, -305, -341, -305, 4, 491, 697, 171, -619, -631, -215, -237])
('ECG', 1756399767816495520, [-346, -251, -232, -273, -242, -220, -234, -230, -203, -186, -179, -167, -147, -130, -128, -125, -113, -104, -113, -125, -123, -123, -154, -188, -213, -249, -283, -309, -334, -338, -338, -348, -351, -343, -346, -346, -331, -319, -322, -322, -309, -307, -312, -305, -295, -297, -307, -305, -300, -305, -312, -314, -314, -312, -317, -322, -314, -309, -319, -324, -317, -312, -317, -317, -309, -307, -305, -314, -314, -302, -302, -305, -300])
('ECG', 1756399768378174222, [-302, -309, -307, -295, -283, -276, -261, -251, -266, -290, -297, -295, -302, -305, -297, -307, -346, -317, -55, 392, 653, 273, -496, -665, -283, -227, -365, -300, -254, -297, -280, -249, -259, -251, -230, -217, -200, -179, -167, -169, -157, -138, -133, -135, -140, -145, -150, -167, -193, -217, -239, -276, -305, -319, -343, -368, -368, -360, -365, -368, -355, -348, -346, -343, -334, -326, -324, -329, -324, -322, -331, -331, -322])
('ECG', 1756399768939832582, [-317, -319, -324, -324, -324, -331, -331, -322, -322, -326, -329, -326, -329, -331, -324, -317, -322, -322, -314, -312, -314, -312, -312, -312, -309, -307, -305, -297, -302, -309, -300, -297, -307, -309, -305, -297, -288, -266, -251, -261, -268, -276, -290, -300, -295, -285, -283, -288, -319, -334, -171, 239, 610, 472, -239, -687, -399, -188, -329, -324, -246, -283, -292, -254, -249, -249, -232, -220, -210, -203, -196, -179, -159])
('ECG', 1756399769501516372, [-147, -142, -138, -142, -152, -159, -171, -191, -200, -220, -259, -290, -309, -331, -353, -358, -353, -355, -363, -365, -351, -341, -341, -341, -334, -331, -326, -322, -319, -324, -331, -329, -324, -324, -336, -341, -331, -322, -324, -334, -336, -329, -326, -329, -331, -326, -314, -312, -324, -319, -312, -326, -329, -317, -317, -322, -319, -309, -312, -312, -302, -309, -324, -312, -283, -266, -261, -261, -266, -276, -288, -295, -297])
('ECG', 1756399770063179816, [-300, -297, -300, -329, -341, -159, 261, 595, 377, -355, -711, -372, -198, -348, -326, -254, -285, -283, -256, -271, -268, -242, -234, -230, -213, -193, -184, -171, -159, -150, -145, -147, -152, -150, -159, -193, -225, -249, -278, -309, -338, -355, -377, -401, -416, -409, -387, -384, -397, -392, -372, -375, -384, -377, -370, -370, -360, -358, -365, -375, -382, -380, -382, -384, -372, -370, -387, -394, -387, -380, -375, -375, -372])
('ECG', 1756399770624838174, [-363, -380, -399, -392, -370, -346, -351, -384, -380, -353, -365, -394, -397, -380, -372, -375, -358, -341, -336, -317, -300, -312, -336, -343, -336, -351, -360, -326, -305, -363, -404, -220, 217, 605, 481, -305, -869, -544, -237, -372, -370, -266, -307, -334, -288, -273, -271, -249, -234, -234, -227, -200, -174, -159, -152, -142, -145, -150, -152, -169, -176, -181, -210, -237, -268, -312, -338, -360, -377, -380, -394, -411, -397])
('ECG', 1756399771186506706, [-380, -380, -380, -368, -365, -368, -363, -351, -341, -348, -351, -334, -322, -322, -317, -312, -317, -317, -314, -317, -314, -312, -309, -305, -300, -292, -292, -300, -292, -280, -283, -290, -288, -276, -278, -285, -273, -263, -259, -244, -232, -232, -239, -251, -263, -261, -251, -249, -254, -271, -305, -225, 142, 602, 639, -38, -716, -544, -181, -261, -309, -213, -225, -261, -227, -210, -217, -196, -176, -176, -169, -154, -147])
('ECG', 1756399771748185408, [-128, -111, -108, -106, -96, -106, -116, -123, -138, -164, -191, -213, -242, -278, -307, -322, -331, -329, -329, -329, -322, -317, -317, -309, -292, -290, -300, -297, -292, -297, -292, -285, -297, -302, -290, -290, -300, -300, -295, -297, -295, -292, -297, -302, -292, -285, -295, -302, -297, -295, -297, -295, -290, -290, -288, -285, -283, -288, -295, -285, -263, -256, -259, -246, -246, -273, -290, -292, -288, -280, -283, -295, -317])
('ECG', 1756399772309843766, [-317, -133, 288, 631, 411, -348, -716, -363, -181, -324, -295, -225, -263, -259, -222, -227, -227, -200, -193, -193, -174, -154, -147, -128, -111, -104, -101, -111, -123, -121, -130, -154, -179, -198, -232, -273, -295, -309, -326, -334, -331, -336, -346, -343, -329, -322, -314, -312, -314, -314, -314, -319, -314, -307, -305, -309, -312, -309, -312, -307, -302, -307, -319, -322, -317, -309, -309, -312, -309, -305, -300, -292, -295])
('ECG', 1756399772871502126, [-297, -297, -292, -295, -300, -300, -305, -309, -297, -280, -266, -254, -249, -246, -254, -276, -285, -278, -278, -285, -295, -314, -341, -256, 77, 515, 612, 24, -668, -568, -203, -273, -353, -254, -242, -280, -256, -239, -239, -222, -208, -205, -191, -171, -159, -147, -130, -118, -118, -125, -130, -138, -142, -147, -171, -208, -244, -276, -295, -317, -346, -353, -353, -358, -355, -348, -348, -346, -338, -334, -331, -329, -334])
('ECG', 1756399773433221520, [-336, -336, -334, -326, -319, -326, -326, -324, -331, -334, -331, -331, -329, -334, -334, -324, -329, -343, -341, -334, -326, -329, -334, -331, -324, -322, -324, -326, -324, -329, -334, -329, -319, -302, -290, -290, -288, -292, -312, -324, -322, -317, -317, -322, -338, -370, -297, 31, 467, 568, -4, -709, -631, -254, -302, -377, -273, -263, -297, -271, -254, -256, -242, -230, -227, -215, -193, -174, -159, -142, -135, -130, -130])
('ECG', 1756399773994818842, [-130, -140, -162, -181, -200, -225, -254, -285, -309, -331, -353, -368, -368, -363, -365, -375, -372, -358, -353, -353, -348, -346, -343, -343, -341, -334, -329, -334, -343, -338, -329, -334, -348, -341, -336, -348, -351, -343, -343, -346, -343, -343, -343, -338, -329, -324, -331, -336, -329, -319, -319, -322, -317, -322, -331, -322, -300, -285, -285, -285, -278, -283, -300, -314, -312, -305, -305, -302, -307, -348, -317, -21, 450])
('ECG', 1756399774556487374, [665, 171, -629, -680, -249, -239, -363, -271, -242, -290, -254, -215, -227, -213, -184, -186, -184, -159, -147, -138, -118, -99, -96, -106, -111, -118, -138, -157, -164, -184, -222, -254, -280, -305, -317, -324, -331, -331, -329, -334, -331, -314, -305, -305, -307, -302, -297, -297, -297, -292, -292, -295, -295, -292, -292, -290, -290, -295, -297, -302, -302, -302, -305, -307, -305, -302, -305, -305, -302, -300, -300, -307, -309])
('ECG', 1756399775118166076, [-305, -302, -297, -297, -309, -307, -297, -300, -295, -283, -276, -268, -254, -249, -263, -283, -292, -297, -297, -295, -300, -314, -348, -266, 84, 532, 617, 9, -682, -564, -188, -268, -351, -254, -254, -285, -246, -237, -246, -222, -203, -200, -188, -171, -154, -138, -123, -113, -113, -118, -121, -125, -140, -154, -167, -191, -232, -273, -292, -307, -324, -341, -351, -348, -348, -346, -338, -336, -331, -322, -317, -319, -317])
('ECG', 1756399775679824434, [-317, -314, -314, -312, -309, -300, -305, -314, -314, -309, -305, -312, -319, -312, -307, -314, -317, -309, -312, -317, -314, -309, -305, -302, -300, -300, -297, -297, -295, -292, -292, -295, -295, -292, -292, -285, -266, -256, -259, -256, -242, -251, -280, -290, -283, -278, -276, -283, -314, -334, -186, 222, 624, 518, -215, -723, -433, -174, -319, -334, -244, -273, -285, -246, -244, -246, -225, -210, -200, -186, -169, -154, -147])
('ECG', 1756399776241482794, [-140, -125, -118, -123, -133, -147, -157, -164, -181, -205, -239, -278, -305, -326, -341, -334, -331, -346, -353, -343, -338, -338, -326, -317, -317, -312, -297, -297, -305, -302, -300, -307, -307, -300, -309, -324, -326, -322, -322, -322, -322, -322, -322, -319, -317, -319, -322, -324, -322, -324, -329, -319, -314, -314, -307, -314, -326, -322, -312, -307, -290, -273, -276, -276, -268, -283, -314, -319, -307, -302, -309, -329, -360])
('ECG', 1756399776803161498, [-334, -79, 382, 644, 237, -564, -740, -331, -230, -346, -280, -237, -278, -266, -230, -222, -213, -193, -186, -181, -167, -150, -140, -128, -111, -104, -104, -111, -125, -145, -154, -164, -188, -220, -251, -288, -322, -341, -346, -348, -360, -365, -353, -341, -334, -334, -331, -331, -326, -314, -309, -309, -312, -317, -317, -314, -312, -312, -309, -312, -322, -324, -317, -314, -322, -329, -329, -319, -309, -309, -317, -324, -322])
('ECG', 1756399777364830028, [-312, -302, -300, -300, -300, -300, -309, -307, -280, -263, -256, -246, -239, -242, -256, -273, -283, -285, -280, -278, -283, -307, -338, -215, 186, 624, 595, -133, -755, -501, -171, -292, -314, -213, -239, -266, -227, -215, -220, -198, -181, -171, -157, -140, -128, -121, -111, -96, -94, -101, -106, -116, -133, -147, -164, -193, -227, -261, -288, -302, -319, -338, -348, -343, -341, -338, -329, -317, -312, -307, -305, -302, -297])
('ECG', 1756399777926488386, [-292, -288, -288, -290, -292, -292, -288, -288, -290, -288, -285, -292, -290, -285, -290, -295, -292, -290, -288, -288, -292, -292, -290, -288, -288, -283, -280, -283, -280, -285, -288, -276, -271, -273, -259, -239, -239, -237, -232, -254, -276, -280, -278, -271, -268, -280, -312, -309, -111, 334, 702, 469, -331, -716, -348, -167, -322, -297, -222, -254, -249, -217, -220, -213, -186, -181, -176, -152, -133, -128, -125, -113, -101])
('ECG', 1756399778488151832, [-96, -94, -96, -106, -130, -157, -167, -188, -230, -263, -278, -295, -317, -324, -324, -329, -329, -319, -314, -317, -314, -305, -305, -302, -295, -292, -292, -292, -290, -290, -295, -300, -297, -295, -300, -302, -309, -317, -309, -305, -307, -309, -307, -314, -314, -307, -307, -307, -305, -307, -309, -305, -300, -300, -295, -290, -292, -290, -285, -290, -295, -288, -276, -263, -259, -251, -249, -268, -292, -300, -295, -290, -285])
('ECG', 1756399779049805104, [-290, -317, -346, -234, 152, 595, 607, -60, -690, -498, -176, -285, -336, -234, -244, -276, -237, -220, -232, -215, -188, -176, -171, -164, -157, -135, -113, -111, -116, -113, -116, -125, -142, -157, -169, -188, -222, -256, -280, -300, -314, -322, -329, -334, -326, -317, -317, -314, -305, -300, -297, -290, -285, -290, -288, -280, -278, -278, -283, -290, -290, -290, -288, -288, -292, -295, -292, -297, -300, -292, -285, -290, -295])
('ECG', 1756399779611488894, [-290, -288, -297, -295, -276, -268, -280, -285, -276, -271, -268, -263, -259, -259, -259, -263, -263, -261, -251, -242, -230, -220, -220, -230, -244, -263, -266, -259, -251, -259, -285, -314, -232, 111, 566, 665, 62, -624, -515, -157, -234, -314, -217, -217, -259, -227, -205, -213, -191, -169, -169, -162, -147, -135, -121, -106, -104, -101, -96, -104, -121, -133, -145, -159, -181, -215, -249, -271, -288, -307, -322, -329, -331])
('ECG', 1756399780173152338, [-326, -326, -324, -317, -309, -312, -314, -312, -305, -300, -302, -295, -290, -295, -300, -297, -302, -312, -307, -297, -300, -305, -309, -312, -307, -305, -307, -300, -297, -302, -302, -295, -295, -295, -295, -292, -288, -283, -283, -283, -283, -285, -285, -280, -271, -256, -246, -244, -246, -259, -280, -288, -283, -276, -276, -283, -307, -317, -138, 295, 648, 438, -314, -699, -363, -169, -314, -295, -213, -254, -266, -222, -210])
('ECG', 1756399780734810696, [-217, -205, -191, -179, -167, -152, -142, -128, -111, -111, -113, -111, -118, -133, -147, -157, -179, -205, -234, -261, -288, -300, -302, -312, -331, -326, -314, -319, -322, -312, -309, -305, -295, -292, -295, -300, -295, -290, -288, -290, -295, -295, -290, -292, -305, -307, -305, -309, -312, -305, -300, -305, -307, -302, -302, -302, -300, -297, -297, -292, -290, -295, -295, -288, -288, -288, -290, -295, -292, -285, -271, -256, -251])
('ECG', 1756399781296469054, [-249, -244, -251, -266, -278, -285, -278, -271, -278, -307, -334, -232, 130, 561, 595, -41, -670, -503, -169, -266, -326, -220, -230, -273, -237, -215, -225, -220, -208, -203, -188, -167, -154, -147, -135, -128, -125, -128, -130, -140, -152, -164, -176, -198, -230, -266, -295, -314, -329, -341, -351, -358, -355, -348, -341, -334, -326, -322, -319, -319, -319, -314, -309, -312, -314, -309, -309, -314, -322, -324, -324, -324, -322])
('ECG', 1756399781858127412, [-319, -322, -324, -324, -324, -324, -314, -309, -309, -300, -300, -309, -300, -290, -292, -288, -285, -295, -300, -297, -290, -276, -268, -266, -254, -239, -246, -268, -285, -292, -288, -278, -268, -283, -322, -295, -33, 416, 660, 251, -542, -711, -307, -225, -343, -266, -217, -259, -249, -222, -225, -215, -198, -193, -181, -167, -159, -147, -125, -108, -104, -108, -121, -125, -133, -157, -176, -191, -220, -251, -283, -309, -322])
('ECG', 1756399782419785770, [-331, -343, -353, -351, -343, -336, -331, -326, -319, -317, -322, -317, -307, -305, -307, -305, -300, -302, -302, -297, -300, -309, -312, -309, -312, -312, -305, -302, -312, -309, -300, -305, -314, -300, -290, -302, -307, -295, -292, -305, -302, -285, -271, -263, -263, -251, -244, -259, -276, -288, -297, -290, -273, -280, -319, -319, -104, 355, 706, 418, -421, -765, -358, -184, -319, -261, -193, -246, -244, -208, -208, -198, -169])
('ECG', 1756399782981444130, [-154, -145, -138, -130, -116, -96, -82, -72, -72, -77, -87, -101, -111, -128, -152, -176, -205, -237, -271, -302, -312, -312, -319, -322, -322, -317, -307, -300, -295, -290, -285, -283, -285, -288, -280, -276, -280, -285, -285, -280, -276, -278, -285, -288, -292, -290, -280, -288, -297, -290, -285, -290, -288, -280, -283, -292, -292, -276, -266, -271, -280, -290, -285, -261, -244, -242, -234, -230, -246, -268, -271, -263, -263])
('ECG', 1756399783543102488, [-271, -276, -300, -317, -157, 271, 677, 537, -251, -748, -406, -147, -300, -292, -200, -234, -244, -208, -208, -205, -176, -164, -169, -154, -130, -116, -106, -94, -89, -89, -92, -99, -104, -113, -138, -159, -184, -225, -259, -278, -305, -324, -326, -329, -329, -324, -319, -319, -322, -317, -302, -288, -288, -290, -288, -283, -280, -278, -283, -285, -290, -288, -288, -290, -288, -288, -300, -305, -295, -290, -295, -288, -285])
('ECG', 1756399784104760846, [-300, -300, -288, -288, -288, -283, -285, -288, -285, -283, -280, -283, -288, -278, -261, -249, -246, -242, -234, -246, -273, -283, -278, -278, -278, -276, -297, -324, -164, 263, 665, 542, -217, -728, -411, -154, -312, -309, -205, -242, -261, -215, -203, -210, -191, -174, -164, -145, -133, -121, -101, -94, -89, -87, -89, -94, -101, -113, -118, -133, -169, -184, -196, -256, -305, -307, -309, -319, -319, -317, -322, -317, -305])
('ECG', 1756399784666419204, [-297, -297, -295, -278, -232, -111, 48, -36, -329, -355, -230, -276, -312, -278, -297, -317, -295, -300, -317, -307, -302, -309, -307, -309, -312, -300, -292, -295, -295, -292, -268, -21, 476, 665, 462, 406, 457, 387, 338, 346, 309, 251, 215, 203, 203, 210, 222, 220, 208, 191, 145, 96, 77, 62, 29, 12, 21, -4, -33, 145, 566, 890, 634, -142, -476, -125, 0, -167, -130, -58, -96, -99, -82])
('ECG', 1756399785228077562, [-121, -343, -554, -554, -685, -673, -331, -205, -184, -53, -14, 2, 43, -7, -53, -41, -50, -75, -94, -135, -179, -200, -217, -237, -244, -249, -251, -234, -213, -217, -227, -222, -225, -232, -227, -220, -225, -230, -222, -227, -239, -237, -227, -230, -239, -244, -244, -256, -261, -259, -261, -271, -278, -285, -295, -394, -738, -1082, -1033, -878, -910, -920, -852, -828, -820, -784, -755, -743, -728, -706, -687, -673, -658])
('ECG', 1756399785789735920, [-627, -590, -564, -556, -542, -522, -527, -539, -527, -510, -508, -506, -501, -515, -515, -329, 108, 481, 290, -474, -886, -527, -302, -450, -430, -336, -377, -392, -341, -324, -329, -309, -290, -278, -254, -230, -220, -210, -191, -179, -174, -171, -179, -193, -203, -210, -230, -256, -280, -305, -336, -365, -380, -382, -382, -384, -397, -392, -370, -355, -355, -358, -355, -353, -346, -334, -334, -334, -326, -326, -331, -331, -334])
('ECG', 1756399786351394280, [-341, -336, -331, -336, -336, -329, -329, -334, -334, -334, -331, -324, -319, -322, -324, -309, -300, -307, -312, -302, -295, -300, -295, -292, -295, -295, -290, -288, -285, -271, -261, -263, -256, -251, -266, -276, -276, -280, -283, -280, -295, -334, -285, 19, 484, 692, 196, -619, -690, -256, -232, -343, -256, -227, -266, -239, -213, -210, -193, -186, -184, -164, -142, -138, -125, -104, -94, -92, -87, -96, -111, -121, -135])
('ECG', 1756399786913052638, [-159, -179, -203, -234, -266, -297, -322, -319, -322, -334, -331, -324, -322, -319, -305, -297, -300, -295, -290, -285, -280, -285, -288, -285, -280, -280, -280, -283, -283, -288, -290, -290, -290, -285, -285, -295, -295, -288, -283, -280, -283, -285, -278, -278, -278, -271, -268, -271, -278, -278, -271, -256, -237, -230, -237, -239, -239, -249, -259, -256, -259, -261, -261, -288, -322, -193, 217, 663, 627, -121, -757, -503, -164])
('ECG', 1756399787474710996, [-278, -305, -203, -225, -244, -205, -191, -191, -176, -167, -162, -147, -121, -104, -99, -87, -77, -79, -79, -77, -92, -108, -123, -142, -184, -230, -246, -268, -307, -329, -329, -334, -341, -338, -338, -336, -331, -322, -309, -307, -305, -302, -302, -297, -292, -292, -292, -297, -302, -297, -290, -297, -300, -297, -305, -307, -297, -300, -307, -307, -305, -300, -288, -283, -288, -283, -278, -283, -283, -273, -263, -261, -266])
('ECG', 1756399788036349010, [-263, -263, -266, -259, -244, -234, -225, -217, -213, -217, -239, -254, -249, -242, -246, -251, -263, -309, -251, 104, 578, 709, 128, -624, -568, -167, -227, -331, -232, -220, -256, -230, -215, -215, -198, -188, -174, -154, -147, -138, -118, -111, -106, -94, -94, -104, -108, -121, -138, -154, -176, -196, -215, -251, -288, -300, -302, -312, -319, -319, -314, -305, -305, -300, -290, -290, -288, -280, -273, -273, -271, -261, -259])
('ECG', 1756399788598027712, [-266, -268, -266, -271, -278, -280, -283, -280, -280, -285, -283, -278, -285, -292, -288, -283, -288, -288, -288, -288, -285, -283, -278, -273, -271, -273, -273, -273, -280, -278, -273, -280, -276, -251, -239, -239, -234, -239, -249, -266, -278, -276, -268, -273, -292, -324, -288, -4, 469, 706, 268, -518, -641, -249, -217, -358, -276, -217, -278, -283, -244, -244, -242, -225, -217, -208, -188, -174, -162, -152, -138, -125, -123])
('ECG', 1756399789159655554, [-130, -128, -130, -157, -184, -198, -225, -268, -300, -317, -334, -343, -351, -358, -355, -353, -353, -343, -334, -329, -326, -329, -326, -317, -314, -322, -326, -317, -309, -309, -312, -322, -329, -324, -319, -317, -326, -331, -322, -319, -329, -329, -326, -326, -319, -319, -322, -312, -312, -309, -300, -300, -309, -312, -305, -295, -297, -302, -302, -307, -312, -295, -278, -278, -276, -261, -261, -280, -295, -302, -297, -288, -295])
('ECG', 1756399789721313912, [-322, -351, -288, 21, 486, 670, 159, -614, -653, -242, -244, -360, -268, -234, -278, -249, -220, -237, -232, -205, -191, -186, -176, -157, -138, -130, -121, -113, -116, -118, -123, -140, -152, -159, -188, -230, -256, -280, -307, -324, -334, -343, -348, -351, -360, -353, -336, -334, -336, -331, -314, -312, -324, -322, -314, -317, -319, -307, -300, -309, -324, -322, -317, -317, -317, -324, -317, -309, -319, -314, -302, -309, -309])
('ECG', 1756399790282972270, [-305, -312, -309, -297, -297, -297, -292, -297, -297, -280, -285, -300, -290, -266, -251, -251, -251, -244, -251, -276, -288, -273, -266, -273, -273, -285, -322, -227, 150, 619, 685, 7, -714, -547, -167, -266, -326, -217, -230, -256, -213, -205, -213, -191, -174, -164, -157, -152, -130, -111, -104, -94, -82, -79, -92, -99, -108, -130, -157, -179, -208, -239, -268, -295, -312, -326, -331, -329, -326, -329, -329, -322, -312])
('ECG', 1756399790844630628, [-307, -312, -305, -295, -290, -292, -295, -290, -283, -283, -278, -280, -295, -292, -283, -283, -283, -278, -280, -285, -283, -268, -263, -271, -271, -271, -273, -268, -263, -261, -256, -254, -251, -256, -261, -249, -244, -261, -263, -256, -254, -239, -222, -217, -210, -215, -237, -246, -249, -246, -239, -242, -276, -317, -215, 154, 614, 690, 60, -629, -498, -152, -246, -319, -225, -230, -266, -234, -215, -217, -205, -186, -174])
('ECG', 1756399791406288986, [-164, -150, -138, -121, -108, -101, -94, -87, -84, -96, -113, -125, -142, -164, -193, -222, -249, -276, -295, -307, -317, -319, -314, -309, -305, -305, -300, -295, -292, -290, -288, -285, -280, -285, -288, -288, -283, -280, -285, -288, -288, -288, -285, -288, -297, -290, -283, -295, -300, -295, -295, -295, -292, -290, -280, -273, -283, -290, -283, -276, -273, -276, -280, -276, -271, -283, -290, -276, -261, -249, -234, -225, -230])
('ECG', 1756399791967921914, [-244, -259, -273, -271, -263, -266, -266, -285, -312, -210, 157, 593, 631, -9, -651, -484, -152, -263, -326, -227, -239, -271, -234, -217, -227, -208, -193, -193, -184, -162, -145, -138, -135, -125, -108, -99, -101, -116, -130, -140, -157, -186, -215, -246, -276, -295, -319, -338, -336, -334, -343, -338, -324, -317, -319, -319, -314, -309, -305, -307, -307, -302, -297, -295, -307, -319, -309, -300, -307, -317, -317, -309, -307])
('ECG', 1756399792529575186, [-312, -312, -309, -309, -312, -314, -307, -302, -309, -312, -307, -305, -305, -300, -297, -305, -305, -290, -283, -288, -297, -300, -292, -276, -261, -254, -249, -246, -256, -278, -288, -300, -317, -309, -300, -312, -348, -343, -133, 300, 622, 355, -418, -733, -355, -210, -363, -314, -239, -290, -292, -256, -256, -239, -208, -205, -203, -186, -167, -154, -142, -128, -118, -116, -118, -121, -125, -142, -154, -169, -208, -244, -266])
('ECG', 1756399793091233544, [-292, -322, -338, -343, -343, -346, -351, -346, -334, -329, -326, -319, -307, -309, -312, -307, -302, -305, -309, -307, -302, -305, -312, -312, -309, -314, -322, -319, -317, -322, -322, -317, -314, -314, -314, -307, -302, -307, -309, -302, -292, -292, -295, -300, -295, -283, -285, -290, -276, -256, -254, -246, -242, -263, -290, -292, -278, -266, -266, -280, -312, -314, -121, 334, 706, 452, -392, -784, -384, -184, -324, -278, -200])
('ECG', 1756399793652861384, [-244, -242, -210, -213, -196, -171, -179, -174, -145, -133, -125, -99, -79, -84, -87, -82, -87, -104, -123, -138, -157, -188, -230, -259, -280, -305, -322, -326, -331, -331, -331, -326, -317, -314, -314, -300, -292, -290, -288, -285, -280, -283, -285, -276, -271, -280, -276, -276, -283, -278, -271, -276, -271, -266, -271, -271, -266, -268, -276, -276, -268, -263, -261, -261, -254, -256, -268, -271, -254, -232, -222, -222, -215])
('ECG', 1756399794214519742, [-210, -232, -259, -259, -251, -251, -254, -261, -305, -297, -60, 389, 709, 399, -423, -692, -278, -159, -317, -266, -213, -263, -254, -222, -230, -222, -198, -191, -179, -169, -171, -154, -113, -99, -101, -101, -106, -104, -118, -150, -169, -186, -220, -268, -297, -305, -322, -346, -358, -358, -355, -351, -348, -341, -331, -319, -309, -305, -307, -297, -280, -283, -290, -283, -271, -268, -273, -266, -259, -268, -271, -263, -273])
('ECG', 1756399794776178100, [-280, -268, -266, -268, -261, -256, -259, -261, -259, -259, -261, -259, -251, -249, -254, -256, -242, -222, -205, -200, -198, -213, -237, -254, -249, -244, -249, -249, -259, -290, -259, 9, 469, 706, 256, -530, -629, -220, -184, -309, -230, -196, -242, -225, -193, -198, -188, -176, -171, -150, -130, -128, -116, -94, -82, -77, -77, -87, -96, -101, -108, -128, -154, -184, -222, -259, -290, -312, -317, -319, -329, -331, -331])
('ECG', 1756399795337811028, [-326, -314, -305, -302, -302, -305, -297, -288, -290, -288, -278, -278, -280, -283, -292, -295, -295, -297, -297, -297, -295, -288, -290, -295, -288, -280, -288, -290, -283, -276, -278, -280, -283, -285, -288, -278, -266, -256, -246, -244, -232, -222, -246, -278, -278, -266, -271, -271, -263, -288, -324, -179, 244, 651, 525, -249, -772, -462, -186, -297, -283, -198, -222, -227, -196, -200, -193, -159, -154, -162, -145, -116, -104])
('ECG', 1756399795899464298, [-92, -70, -60, -65, -62, -60, -75, -94, -113, -130, -154, -193, -227, -254, -288, -307, -302, -302, -312, -322, -309, -297, -297, -292, -283, -280, -276, -276, -283, -280, -273, -276, -273, -268, -276, -278, -268, -268, -278, -285, -288, -283, -276, -268, -266, -263, -268, -276, -273, -271, -278, -276, -263, -256, -246, -230, -217, -213, -232, -259, -261, -259, -261, -256, -249, -271, -317, -259, 65, 549, 736, 171, -644])
('ECG', 1756399796461092140, [-641, -210, -217, -309, -215, -198, -232, -200, -179, -188, -174, -147, -130, -121, -104, -92, -79, -62, -53, -50, -50, -53, -58, -65, -82, -104, -133, -171, -205, -234, -261, -280, -297, -305, -302, -300, -295, -285, -285, -283, -276, -266, -261, -261, -263, -263, -259, -254, -261, -259, -249, -254, -263, -259, -256, -261, -254, -251, -256, -259, -266, -271, -271, -263, -256, -256, -261, -263, -266, -263, -251, -230, -222])
('ECG', 1756399797022750498, [-222, -220, -239, -266, -261, -251, -254, -254, -256, -278, -312, -234, 108, 588, 709, 101, -631, -552, -171, -232, -319, -217, -205, -242, -215, -196, -200, -188, -171, -159, -142, -133, -125, -106, -87, -82, -75, -67, -70, -79, -94, -104, -121, -152, -191, -225, -251, -276, -295, -305, -302, -307, -312, -305, -295, -292, -290, -285, -283, -278, -271, -271, -271, -268, -266, -266, -261, -256, -259, -266, -268, -263, -261])
('ECG', 1756399797584393598, [-266, -268, -273, -278, -278, -268, -266, -273, -266, -256, -263, -271, -271, -268, -276, -280, -268, -244, -234, -234, -225, -220, -249, -273, -268, -266, -271, -266, -271, -300, -319, -150, 280, 670, 520, -244, -723, -399, -159, -312, -312, -227, -261, -261, -210, -210, -220, -193, -176, -174, -159, -145, -128, -113, -108, -104, -94, -92, -94, -101, -113, -121, -135, -171, -215, -244, -263, -283, -302, -317, -319, -307, -309])
('ECG', 1756399798146036696, [-317, -307, -295, -295, -292, -288, -288, -280, -271, -263, -266, -278, -280, -266, -263, -278, -285, -278, -273, -278, -283, -283, -283, -285, -285, -280, -280, -280, -276, -273, -273, -268, -268, -276, -271, -273, -276, -263, -246, -239, -239, -234, -227, -237, -261, -266, -259, -254, -259, -263, -297, -326, -167, 273, 702, 600, -193, -750, -421, -130, -276, -278, -179, -217, -237, -186, -174, -176, -159, -147, -142, -130, -106])
('ECG', 1756399798707669624, [-84, -82, -77, -65, -58, -58, -58, -70, -87, -96, -111, -142, -174, -200, -227, -256, -276, -278, -278, -280, -280, -271, -263, -261, -259, -256, -249, -242, -244, -244, -237, -237, -242, -244, -239, -242, -249, -246, -242, -249, -256, -254, -254, -254, -254, -254, -256, -254, -251, -249, -246, -242, -239, -244, -251, -249, -244, -242, -242, -246, -246, -232, -220, -215, -210, -203, -213, -242, -251, -249, -249, -249, -249])
('ECG', 1756399799269322894, [-268, -302, -225, 118, 585, 704, 111, -612, -537, -167, -230, -309, -213, -217, -254, -213, -191, -203, -186, -164, -159, -145, -125, -123, -118, -101, -87, -75, -72, -77, -79, -94, -116, -130, -152, -186, -220, -246, -273, -292, -297, -300, -302, -295, -290, -288, -280, -271, -271, -278, -273, -256, -256, -266, -263, -259, -259, -261, -261, -254, -254, -266, -273, -266, -259, -263, -273, -276, -273, -271, -278, -283, -278])
('ECG', 1756399799830976168, [-273, -268, -263, -266, -263, -259, -263, -266, -263, -259, -263, -263, -246, -227, -227, -227, -217, -230, -263, -273, -266, -266, -263, -259, -276, -317, -280, 7, 481, 719, 259, -537, -631, -215, -200, -341, -254, -217, -271, -249, -213, -215, -205, -196, -198, -179, -152, -140, -133, -113, -99, -99, -99, -94, -101, -113, -135, -154, -169, -196, -234, -263, -295, -314, -319, -329, -338, -329, -324, -322, -314, -309, -309])
('ECG', 1756399800392609094, [-305, -290, -283, -285, -285, -283, -278, -285, -292, -295, -285, -280, -292, -295, -290, -295, -300, -297, -300, -305, -300, -297, -302, -292, -278, -280, -290, -292, -288, -280, -278, -280, -288, -285, -271, -251, -242, -237, -237, -254, -276, -285, -283, -278, -283, -285, -300, -336, -256, 101, 573, 668, 24, -711, -590, -198, -271, -341, -232, -232, -271, -230, -210, -217, -188, -159, -154, -152, -142, -128, -108, -92, -82])
('ECG', 1756399800954252194, [-84, -84, -87, -96, -111, -125, -140, -159, -193, -239, -268, -285, -307, -322, -319, -319, -326, -319, -307, -300, -292, -288, -283, -278, -280, -283, -271, -268, -273, -271, -271, -268, -266, -273, -271, -266, -276, -283, -273, -268, -268, -266, -268, -268, -263, -263, -266, -263, -256, -261, -268, -259, -242, -230, -222, -217, -213, -213, -237, -256, -251, -242, -242, -246, -256, -290, -259, 33, 513, 748, 273, -554, -656])
('ECG', 1756399801515895292, [-213, -169, -305, -230, -188, -227, -203, -171, -169, -154, -133, -121, -99, -77, -75, -65, -48, -41, -38, -33, -33, -46, -65, -77, -89, -113, -152, -184, -213, -246, -271, -268, -271, -295, -302, -288, -273, -263, -259, -256, -259, -261, -259, -249, -244, -251, -259, -259, -251, -249, -256, -256, -254, -259, -259, -254, -254, -259, -254, -254, -263, -261, -251, -256, -268, -263, -254, -256, -266, -263, -246, -234, -222])
('ECG', 1756399802077553650, [-210, -203, -205, -230, -254, -251, -239, -237, -246, -249, -271, -280, -89, 353, 704, 484, -295, -690, -334, -142, -290, -256, -179, -225, -227, -181, -181, -193, -169, -147, -142, -125, -101, -89, -79, -60, -48, -46, -50, -58, -62, -67, -92, -128, -159, -196, -230, -251, -271, -290, -305, -305, -300, -295, -290, -285, -276, -278, -283, -271, -259, -263, -268, -256, -251, -256, -254, -254, -259, -256, -251, -254, -251])
('ECG', 1756399802639181492, [-251, -256, -254, -251, -251, -251, -249, -246, -246, -254, -254, -244, -249, -259, -251, -232, -217, -215, -215, -208, -217, -249, -256, -251, -251, -251, -256, -280, -309, -242, 43, 472, 644, 121, -631, -612, -203, -230, -331, -237, -220, -256, -222, -196, -200, -188, -176, -176, -162, -138, -128, -108, -82, -72, -70, -62, -70, -79, -79, -84, -106, -140, -184, -213, -232, -263, -288, -288, -292, -307, -307, -300, -297])
('ECG', 1756399803200834764, [-290, -283, -278, -276, -276, -268, -261, -263, -271, -276, -271, -266, -263, -261, -268, -276, -271, -271, -278, -278, -280, -285, -280, -273, -278, -283, -280, -278, -276, -263, -244, -232, -232, -239, -249, -259, -268, -276, -273, -266, -271, -280, -295, -230, 84, 547, 677, 65, -699, -619, -205, -239, -312, -208, -200, -242, -213, -196, -203, -184, -157, -145, -130, -123, -111, -89, -79, -77, -65, -58, -70, -89, -99])
('ECG', 1756399803762467690, [-108, -125, -159, -198, -230, -254, -273, -290, -300, -300, -309, -312, -302, -290, -288, -283, -268, -263, -271, -268, -254, -254, -259, -251, -246, -254, -254, -246, -246, -254, -259, -259, -261, -266, -259, -251, -259, -259, -249, -259, -266, -256, -254, -239, -217, -222, -222, -210, -227, -254, -249, -234, -244, -251, -254, -283, -271, -36, 423, 733, 380, -452, -704, -285, -164, -300, -239, -191, -234, -208, -169, -176, -167])
('ECG', 1756399804324110790, [-142, -138, -130, -106, -89, -82, -75, -72, -70, -53, -43, -55, -67, -82, -104, -138, -171, -200, -232, -261, -280, -295, -300, -302, -305, -292, -285, -278, -266, -261, -263, -254, -239, -239, -246, -251, -251, -239, -232, -239, -242, -234, -239, -249, -244, -239, -246, -254, -254, -249, -239, -220, -184, -179, -203, -203, -188, -191, -200, -196, -179, -186, -222, -237, -225, -222, -225, -225, -234, -271, -246, 21, 496])
('ECG', 1756399804885753888, [765, 329, -498, -646, -234, -186, -305, -220, -193, -244, -217, -186, -193, -181, -164, -167, -157, -118, -82, -77, -79, -60, -46, -46, -53, -60, -77, -92, -118, -154, -188, -217, -251, -285, -302, -314, -326, -331, -331, -324, -314, -307, -305, -307, -314, -319, -314, -307, -302, -297, -300, -297, -295, -290, -288, -290, -288, -268, -249, -251, -249, -244, -259, -266, -261, -263, -266, -261, -266, -271, -271, -259, -242])
('ECG', 1756399805447381728, [-232, -232, -234, -249, -271, -280, -276, -261, -259, -268, -280, -314, -285, 0, 469, 685, 217, -549, -624, -230, -208, -319, -239, -205, -237, -217, -196, -191, -171, -157, -154, -142, -128, -123, -111, -92, -89, -87, -79, -87, -101, -111, -125, -145, -174, -210, -246, -271, -295, -319, -331, -346, -384, -409, -392, -377, -382, -380, -368, -360, -358, -353, -341, -334, -336, -329, -317, -314, -322, -322, -322, -326, -319])
('ECG', 1756399806009009570, [-307, -309, -322, -324, -309, -295, -302, -314, -309, -305, -300, -300, -307, -309, -295, -278, -271, -256, -246, -268, -290, -290, -285, -290, -297, -297, -312, -348, -268, 94, 549, 612, -14, -699, -578, -213, -271, -334, -244, -244, -263, -234, -227, -227, -210, -198, -193, -174, -157, -142, -130, -118, -113, -108, -106, -111, -128, -142, -159, -179, -203, -234, -268, -290, -307, -329, -341, -341, -351, -355, -343, -331, -326])
('ECG', 1756399806570662842, [-322, -314, -309, -307, -305, -302, -295, -290, -288, -276, -271, -288, -292, -280, -273, -285, -288, -278, -276, -285, -283, -268, -261, -266, -271, -266, -263, -271, -276, -268, -259, -246, -232, -217, -210, -217, -244, -259, -251, -244, -242, -239, -249, -278, -292, -116, 336, 726, 513, -314, -740, -348, -121, -278, -259, -174, -205, -210, -174, -169, -171, -152, -130, -123, -121, -106, -87, -75, -75, -67, -60, -65, -75])
('ECG', 1756399807132295768, [-84, -96, -101, -108, -142, -188, -220, -242, -263, -283, -285, -285, -288, -288, -280, -266, -220, -38, 225, 297, 227, 239, 278, 256, 225, 222, 210, 181, 164, 210, 336, 416, 360, 302, 295, 266, 237, 220, 186, 159, 150, 121, 94, 82, 60, 31, -14, -87, -147, -150, -118, -135, -237, -336, -389, -428, -481, -527, -559, -598, -653, -677, -547, -147, 302, 278, -426, -987, -723, -414, -527, -552, -450])
('ECG', 1756399807693954126, [-464, -469, -411, -394, -392, -360, -334, -322, -300, -271, -254, -239, -217, -203, -198, -193, -188, -191, -196, -208, -217, -232, -259, -290, -314, -324, -326, -336, -343, -338, -329, -324, -314, -302, -297, -290, -273, -261, -268, -276, -268, -271, -276, -268, -261, -266, -271, -273, -280, -290, -292, -290, -290, -292, -292, -290, -290, -290, -283, -276, -278, -290, -283, -276, -273, -273, -273, -278, -278, -266, -244, -232, -232])
('ECG', 1756399808255581966, [-227, -232, -256, -268, -261, -261, -268, -271, -285, -312, -239, 82, 532, 644, 55, -641, -547, -176, -244, -336, -251, -239, -263, -232, -215, -222, -215, -208, -203, -191, -184, -188, -188, -169, -150, -145, -142, -142, -157, -174, -179, -193, -220, -244, -271, -285, -280, -305, -348, -363, -360, -363, -353, -338, -334, -329, -319, -317, -314, -302, -297, -307, -312, -302, -292, -290, -295, -300, -307, -309, -307, -307, -302])
('ECG', 1756399808817214894, [-295, -300, -309, -312, -309, -300, -295, -292, -292, -292, -290, -290, -292, -285, -283, -292, -297, -288, -276, -263, -249, -242, -244, -259, -283, -288, -278, -283, -288, -280, -288, -324, -290, -16, 438, 658, 179, -610, -677, -259, -239, -348, -259, -225, -263, -234, -205, -213, -193, -162, -164, -167, -138, -116, -116, -106, -92, -84, -79, -84, -99, -104, -111, -138, -167, -188, -208, -237, -268, -280, -292, -307, -307])
('ECG', 1756399809378868164, [-295, -290, -292, -288, -278, -273, -276, -268, -254, -234, -213, -220, -239, -232, -230, -242, -239, -232, -186, -67, 2, -36, -50, -7, -4, -36, -67, -121, -164, -179, -176, -179, -200, -244, -285, -307, -319, -329, -336, -326, -309, -300, -288, -271, -263, -271, -290, -300, -300, -300, -295, -295, -312, -346, -292, 7, 464, 663, 181, -581, -631, -232, -225, -343, -266, -232, -271, -246, -222, -227, -213, -191, -184])
('ECG', 1756399809940496006, [-169, -152, -140, -128, -108, -92, -89, -89, -84, -92, -99, -43, 145, 341, 290, 104, 33, 29, -7, -48, -60, -65, -87, -142, -217, -234, -213, -222, -234, -225, -246, -319, -334, -276, -259, -285, -288, -290, -297, -290, -271, -268, -283, -266, -242, -280, -329, -309, -283, -297, -317, -326, -338, -336, -331, -329, -324, -317, -309, -300, -300, -317, -312, -278, -266, -278, -271, -276, -302, -312, -300, -290, -292])
('ECG', 1756399810502144192, [-300, -317, -343, -234, 147, 564, 530, -147, -711, -479, -179, -300, -341, -242, -251, -276, -244, -230, -237, -237, -217, -191, -164, -150, -142, -125, -111, -108, -106, -108, -118, -125, -130, -138, -152, -171, -198, -227, -254, -271, -278, -285, -283, -276, -280, -278, -263, -268, -273, -261, -249, -249, -244, -234, -230, -230, -237, -244, -244, -242, -244, -249, -242, -242, -256, -263, -259, -259, -256, -249, -251, -259, -251])
('ECG', 1756399811063782204, [-249, -256, -256, -249, -246, -246, -237, -232, -244, -249, -244, -244, -239, -227, -215, -205, -205, -203, -208, -227, -242, -244, -244, -244, -246, -256, -288, -261, 21, 489, 653, 140, -556, -559, -205, -217, -292, -188, -154, -167, -121, -179, -300, -191, -79, -263, -341, -217, -200, -230, -186, -162, -171, -167, -162, -167, -179, -191, -198, -205, -234, -268, -292, -312, -334, -346, -351, -353, -355, -351, -338, -324, -322])
('ECG', 1756399811625410044, [-322, -309, -300, -295, -290, -297, -305, -297, -290, -290, -288, -285, -285, -283, -280, -283, -285, -288, -290, -292, -290, -280, -280, -285, -283, -276, -280, -278, -268, -273, -283, -276, -266, -261, -251, -242, -234, -222, -230, -261, -268, -261, -263, -259, -259, -278, -309, -242, 67, 510, 646, 87, -641, -590, -198, -222, -295, -198, -191, -225, -188, -167, -179, -159, -140, -135, -125, -108, -92, -75, -55, -38, -33])
('ECG', 1756399812187042972, [-41, -58, -79, -96, -106, -116, -147, -184, -213, -237, -259, -276, -288, -297, -295, -295, -295, -285, -280, -278, -271, -266, -268, -263, -261, -266, -263, -256, -254, -256, -256, -259, -266, -261, -251, -254, -256, -256, -256, -256, -256, -254, -254, -259, -254, -244, -239, -239, -242, -246, -249, -237, -220, -208, -198, -193, -193, -210, -232, -230, -220, -225, -227, -227, -251, -268, -121, 285, 687, 583, -167, -682, -372])
('ECG', 1756399812748696242, [-96, -230, -237, -152, -188, -203, -154, -145, -159, -147, -121, -106, -101, -92, -72, -58, -46, -36, -26, -31, -43, -53, -62, -79, -106, -135, -164, -193, -232, -254, -259, -271, -276, -271, -273, -276, -263, -254, -256, -251, -246, -249, -249, -249, -249, -244, -244, -249, -254, -251, -242, -242, -246, -246, -246, -246, -239, -239, -239, -230, -230, -239, -242, -249, -254, -249, -244, -242, -244, -254, -256, -244, -234])
('ECG', 1756399813310324084, [-225, -213, -210, -210, -222, -244, -249, -239, -234, -234, -239, -261, -288, -176, 193, 619, 614, -55, -660, -445, -113, -222, -273, -174, -191, -225, -184, -162, -171, -159, -145, -135, -116, -101, -87, -70, -62, -60, -58, -55, -62, -84, -99, -108, -133, -157, -188, -222, -244, -263, -280, -285, -285, -295, -297, -285, -276, -278, -283, -278, -268, -261, -266, -263, -259, -259, -263, -266, -263, -266, -271, -266, -261])
('ECG', 1756399813871951924, [-271, -283, -276, -266, -266, -266, -268, -271, -266, -263, -268, -268, -263, -259, -256, -259, -261, -263, -259, -242, -227, -222, -213, -208, -227, -254, -256, -246, -251, -259, -256, -278, -305, -179, 210, 619, 552, -154, -694, -428, -140, -273, -300, -196, -210, -232, -198, -191, -188, -167, -157, -147, -121, -99, -92, -84, -67, -65, -70, -67, -75, -89, -101, -111, -130, -159, -188, -213, -244, -273, -285, -292, -300])
('ECG', 1756399814433595024, [-302, -297, -297, -292, -283, -280, -280, -273, -273, -283, -280, -273, -278, -278, -276, -280, -285, -280, -280, -290, -295, -290, -285, -283, -285, -288, -285, -280, -283, -280, -280, -283, -285, -280, -276, -276, -268, -259, -244, -237, -239, -237, -234, -259, -276, -263, -261, -280, -278, -271, -305, -292, -33, 421, 658, 232, -559, -704, -283, -208, -326, -249, -205, -246, -227, -198, -210, -196, -164, -164, -174, -154, -123])
('ECG', 1756399814995217778, [-106, -104, -101, -94, -87, -94, -101, -101, -118, -140, -157, -179, -217, -249, -261, -273, -295, -309, -312, -305, -297, -292, -288, -285, -273, -266, -271, -268, -263, -261, -254, -251, -251, -251, -251, -251, -244, -234, -237, -239, -237, -234, -237, -242, -244, -244, -237, -230, -234, -234, -232, -239, -242, -242, -242, -234, -217, -196, -196, -203, -203, -213, -237, -242, -230, -225, -230, -239, -273, -276, -50, 406, 709])
('ECG', 1756399815556865962, [358, -452, -690, -285, -174, -317, -259, -203, -244, -234, -200, -196, -184, -167, -154, -140, -125, -118, -104, -82, -77, -72, -65, -70, -84, -94, -104, -118, -135, -164, -196, -220, -246, -276, -290, -290, -283, -285, -283, -276, -266, -261, -259, -251, -242, -244, -254, -249, -239, -246, -246, -239, -249, -259, -249, -246, -259, -266, -256, -251, -261, -261, -259, -259, -261, -263, -263, -261, -254, -251, -251, -249, -246])
('ECG', 1756399816118493802, [-246, -254, -256, -256, -237, -210, -205, -210, -205, -215, -239, -244, -239, -230, -220, -222, -246, -278, -186, 162, 600, 651, 19, -639, -489, -138, -230, -295, -191, -193, -227, -191, -176, -181, -159, -140, -138, -128, -113, -101, -92, -79, -70, -67, -77, -84, -89, -101, -113, -133, -159, -184, -203, -225, -244, -259, -271, -283, -280, -271, -261, -261, -268, -263, -254, -256, -268, -271, -263, -259, -256, -256, -261])
('ECG', 1756399816680121644, [-259, -256, -259, -256, -256, -261, -266, -259, -261, -263, -251, -246, -254, -254, -246, -249, -254, -259, -249, -237, -232, -239, -242, -237, -234, -234, -234, -239, -244, -242, -230, -213, -205, -198, -191, -210, -242, -246, -239, -239, -242, -244, -266, -292, -159, 242, 644, 549, -164, -670, -392, -133, -263, -276, -186, -210, -225, -184, -179, -188, -167, -150, -147, -130, -116, -108, -92, -77, -77, -77, -75, -82, -87])
('ECG', 1756399817241749484, [-101, -118, -130, -147, -176, -208, -234, -251, -256, -263, -266, -259, -251, -254, -249, -239, -242, -239, -239, -242, -237, -227, -225, -230, -232, -237, -234, -232, -234, -244, -246, -246, -244, -242, -244, -249, -251, -249, -242, -237, -246, -251, -239, -234, -244, -246, -244, -239, -234, -239, -244, -239, -246, -256, -249, -237, -232, -217, -203, -213, -232, -246, -249, -251, -251, -244, -237, -254, -292, -232, 82, 522, 648])
('ECG', 1756399817803377324, [104, -607, -561, -176, -203, -290, -203, -193, -225, -188, -167, -174, -152, -128, -130, -125, -104, -89, -79, -65, -60, -60, -58, -55, -70, -89, -106, -118, -128, -164, -208, -232, -244, -261, -276, -285, -288, -288, -283, -280, -280, -278, -268, -261, -261, -256, -249, -254, -261, -256, -251, -261, -268, -263, -261, -256, -249, -251, -261, -263, -259, -249, -249, -259, -259, -254, -259, -266, -263, -268, -273, -266, -268])
('ECG', 1756399818365005164, [-283, -273, -254, -251, -244, -232, -222, -222, -242, -261, -259, -251, -242, -244, -266, -297, -288, -72, 377, 709, 406, -423, -740, -324, -157, -290, -234, -167, -210, -200, -162, -169, -164, -135, -118, -108, -94, -77, -60, -38, -21, -19, -16, -29, -53, -60, -67, -87, -108, -133, -171, -203, -222, -242, -256, -256, -261, -273, -263, -246, -249, -244, -234, -237, -232, -227, -222, -217, -222, -234, -234, -230, -230])
('ECG', 1756399818926638092, [-237, -237, -234, -237, -244, -244, -239, -234, -242, -251, -244, -234, -239, -246, -244, -239, -239, -237, -234, -239, -246, -249, -249, -232, -208, -198, -203, -198, -203, -227, -234, -230, -234, -234, -232, -249, -285, -237, 77, 554, 726, 193, -561, -566, -164, -186, -302, -205, -174, -217, -191, -159, -169, -164, -147, -133, -113, -99, -92, -84, -72, -60, -53, -60, -65, -65, -84, -111, -128, -150, -184, -210, -239])
('ECG', 1756399819488291362, [-268, -283, -292, -302, -302, -302, -300, -297, -288, -276, -266, -263, -261, -254, -254, -251, -239, -237, -254, -261, -251, -246, -251, -254, -249, -254, -263, -259, -259, -263, -261, -251, -254, -273, -273, -259, -256, -251, -246, -249, -246, -239, -249, -256, -251, -242, -237, -227, -217, -210, -200, -203, -234, -256, -249, -242, -244, -244, -254, -290, -259, 24, 486, 699, 234, -525, -598, -198, -181, -307, -222, -181, -227])
('ECG', 1756399820049914118, [-210, -176, -181, -169, -138, -128, -133, -113, -84, -77, -75, -60, -50, -60, -72, -82, -92, -101, -121, -145, -176, -208, -232, -256, -283, -295, -295, -297, -295, -295, -292, -280, -273, -271, -263, -254, -246, -251, -256, -251, -244, -244, -249, -256, -259, -254, -254, -259, -261, -263, -266, -263, -263, -268, -271, -266, -259, -256, -256, -261, -271, -266, -256, -254, -256, -261, -263, -251, -249, -263, -266, -249, -232])
('ECG', 1756399820611536872, [-227, -225, -220, -230, -251, -266, -266, -256, -251, -251, -268, -302, -254, 41, 486, 651, 138, -595, -590, -188, -208, -314, -215, -186, -227, -198, -174, -179, -167, -150, -145, -133, -113, -104, -94, -82, -65, -58, -67, -75, -79, -94, -116, -133, -152, -176, -205, -234, -263, -288, -300, -297, -297, -297, -295, -290, -285, -278, -273, -276, -280, -273, -263, -256, -254, -259, -273, -280, -273, -266, -273, -285, -288])
('ECG', 1756399821173174884, [-285, -283, -278, -278, -280, -285, -288, -278, -268, -278, -283, -276, -273, -278, -273, -259, -256, -266, -273, -266, -254, -234, -220, -220, -215, -217, -239, -259, -263, -271, -266, -251, -261, -302, -280, -9, 460, 714, 273, -547, -685, -251, -191, -317, -232, -186, -232, -208, -171, -179, -171, -145, -128, -128, -116, -92, -77, -75, -65, -55, -60, -70, -75, -82, -99, -121, -145, -169, -196, -220, -254, -283, -292])
('ECG', 1756399821734802724, [-295, -297, -295, -288, -278, -273, -271, -268, -259, -251, -251, -251, -242, -237, -239, -234, -232, -242, -244, -242, -239, -246, -259, -254, -249, -251, -249, -251, -246, -239, -242, -244, -242, -237, -232, -234, -242, -239, -222, -215, -225, -234, -230, -217, -200, -188, -193, -193, -196, -213, -225, -220, -220, -222, -217, -230, -266, -198, 142, 607, 711, 104, -610, -508, -123, -186, -271, -176, -171, -200, -167, -152, -157])
('ECG', 1756399822296430564, [-130, -113, -111, -94, -75, -58, -46, -38, -33, -24, -21, -29, -36, -43, -65, -94, -118, -142, -174, -210, -232, -246, -266, -276, -273, -268, -261, -259, -261, -256, -244, -242, -242, -239, -234, -239, -237, -230, -232, -239, -237, -234, -242, -246, -242, -244, -251, -246, -244, -251, -256, -249, -246, -246, -244, -251, -254, -246, -239, -242, -239, -237, -239, -251, -256, -244, -220, -200, -198, -196, -191, -213, -237])
('ECG', 1756399822858058406, [-234, -227, -227, -227, -237, -263, -268, -104, 302, 677, 532, -208, -665, -348, -118, -268, -261, -162, -193, -208, -167, -167, -171, -142, -125, -123, -106, -94, -89, -75, -60, -60, -53, -48, -62, -87, -101, -106, -125, -159, -191, -222, -251, -268, -285, -297, -300, -302, -295, -285, -283, -276, -266, -263, -266, -261, -263, -263, -251, -244, -251, -256, -249, -251, -259, -254, -246, -254, -261, -261, -254, -259, -263])
('ECG', 1756399823419686246, [-256, -254, -261, -259, -251, -254, -251, -246, -249, -251, -246, -242, -239, -237, -242, -256, -259, -234, -217, -215, -208, -200, -208, -225, -232, -234, -244, -244, -237, -249, -285, -271, -46, 392, 682, 348, -426, -653, -251, -138, -285, -234, -176, -220, -220, -188, -186, -179, -162, -145, -138, -133, -116, -96, -79, -67, -65, -72, -77, -79, -89, -104, -116, -138, -174, -208, -232, -254, -276, -297, -305, -305, -307])
('ECG', 1756399823981314086, [-309, -300, -280, -273, -273, -268, -278, -280, -263, -254, -266, -278, -271, -261, -268, -273, -271, -276, -280, -280, -278, -280, -283, -280, -276, -280, -283, -276, -273, -276, -278, -276, -266, -266, -276, -278, -273, -276, -276, -259, -239, -232, -232, -234, -242, -256, -259, -249, -249, -254, -249, -259, -292, -261, 12, 462, 663, 198, -571, -656, -244, -200, -309, -217, -181, -225, -200, -171, -181, -171, -152, -154, -142])
('ECG', 1756399824542941926, [-116, -106, -96, -77, -65, -62, -72, -84, -89, -96, -101, -113, -140, -176, -205, -237, -261, -273, -288, -295, -297, -300, -290, -280, -285, -283, -266, -261, -268, -266, -261, -263, -266, -263, -263, -268, -266, -261, -261, -259, -256, -261, -271, -271, -263, -259, -261, -263, -266, -256, -254, -259, -256, -249, -251, -256, -246, -239, -254, -261, -242, -222, -215, -210, -203, -196, -213, -239, -239, -230, -234, -237, -230])
('ECG', 1756399825104569766, [-251, -285, -179, 198, 624, 636, -26, -663, -462, -121, -230, -276, -167, -176, -200, -159, -157, -171, -147, -125, -121, -113, -104, -89, -70, -60, -58, -48, -48, -58, -60, -75, -101, -116, -130, -164, -205, -230, -246, -268, -280, -285, -288, -283, -276, -268, -261, -261, -266, -256, -244, -246, -251, -251, -246, -254, -259, -251, -251, -256, -256, -251, -251, -256, -263, -263, -256, -256, -256, -256, -251, -254, -256])
('ECG', 1756399825666202694, [-256, -254, -251, -249, -249, -246, -249, -246, -234, -237, -249, -244, -227, -215, -205, -198, -200, -208, -225, -242, -237, -232, -232, -225, -237, -271, -227, 60, 513, 694, 188, -549, -561, -171, -184, -288, -196, -169, -208, -188, -171, -179, -154, -128, -128, -128, -108, -92, -84, -72, -58, -50, -58, -67, -72, -82, -101, -123, -147, -169, -196, -230, -249, -261, -285, -302, -300, -295, -285, -278, -271, -268, -273])
('ECG', 1756399826227825448, [-278, -271, -259, -251, -254, -249, -246, -259, -263, -259, -259, -261, -259, -251, -254, -261, -261, -259, -259, -259, -251, -251, -254, -249, -254, -266, -263, -249, -242, -244, -244, -239, -239, -242, -246, -254, -249, -237, -227, -213, -203, -200, -217, -242, -249, -249, -254, -254, -246, -263, -312, -259, 53, 489, 629, 113, -600, -581, -184, -198, -302, -217, -198, -237, -205, -181, -193, -184, -157, -150, -142, -130, -123])
('ECG', 1756399826789453288, [-111, -92, -82, -77, -75, -75, -77, -89, -108, -118, -138, -171, -203, -232, -254, -261, -276, -295, -300, -288, -290, -297, -285, -271, -271, -273, -273, -261, -254, -254, -259, -261, -256, -256, -268, -276, -268, -263, -271, -271, -268, -276, -288, -278, -263, -268, -276, -285, -290, -271, -254, -261, -266, -263, -263, -259, -263, -278, -278, -261, -244, -227, -220, -232, -244, -242, -246, -259, -261, -259, -259, -263, -292])
('ECG', 1756399827351081128, [-280, -33, 438, 704, 285, -520, -697, -280, -184, -297, -225, -169, -205, -200, -171, -164, -154, -138, -130, -128, -111, -94, -89, -84, -65, -48, -53, -62, -67, -79, -94, -111, -138, -174, -208, -220, -244, -283, -297, -288, -288, -292, -290, -278, -271, -271, -268, -263, -261, -263, -263, -263, -263, -261, -259, -259, -259, -259, -256, -256, -256, -259, -259, -263, -266, -261, -256, -251, -251, -249, -246, -244, -242])
('ECG', 1756399827912693710, [-237, -237, -232, -234, -249, -249, -230, -203, -186, -191, -198, -198, -208, -230, -230, -215, -213, -215, -232, -271, -225, 65, 520, 723, 232, -549, -600, -176, -157, -278, -198, -162, -193, -169, -150, -162, -145, -116, -113, -108, -87, -65, -55, -50, -46, -41, -43, -48, -50, -62, -92, -111, -118, -150, -193, -220, -244, -268, -276, -273, -285, -288, -268, -259, -256, -249, -251, -249, -239, -239, -242, -242, -242])
('ECG', 1756399828474316464, [-239, -237, -242, -246, -251, -244, -234, -239, -249, -251, -246, -242, -239, -244, -249, -246, -239, -237, -244, -246, -244, -244, -239, -239, -239, -244, -242, -225, -208, -205, -196, -184, -198, -230, -246, -239, -230, -227, -230, -246, -280, -237, 50, 503, 699, 227, -527, -598, -198, -171, -290, -215, -174, -210, -188, -154, -152, -147, -138, -125, -104, -94, -94, -72, -48, -46, -46, -41, -55, -70, -67, -77, -106])
('ECG', 1756399829035939218, [-138, -162, -188, -220, -246, -263, -276, -278, -276, -280, -283, -271, -263, -263, -256, -244, -242, -242, -242, -242, -242, -242, -239, -234, -232, -237, -239, -242, -244, -244, -244, -246, -249, -244, -237, -242, -251, -249, -244, -244, -246, -249, -246, -242, -234, -232, -237, -234, -222, -208, -200, -196, -193, -200, -220, -242, -251, -244, -234, -234, -244, -273, -263, -33, 409, 682, 324, -455, -656, -251, -159, -305, -244])
