('ECG', 1747930664381272000, [-123, 972, 3885, 6465, 7071, 7367, 8056, 8255, 8243, 8424, 8449, 8308, 8267, 8238, 8114, 7966, 7845, 7716, 7568, 7416, 7282, 7134, 6962, 6804, 6671, 6533, 6399, 6271, 6145, 6036, 5912, 5764, 5643, 5553, 5429, 5269, 5146, 5051, 4942, 4821, 4697, 4578, 4462, 4355, 4243, 4120, 4001, 3885, 3766, 3666, 3594, 3504, 3385, 3264, 3147, 3053, 2970, 2859, 2750, 2665, 2573, 2476, 2391, 2299, 2202, 2117, 2029, 1937, 1845, 1753, 1668, 1578, 1479])
('ECG', 1747930664942981222, [1401, 1345, 1280, 1190, 1103, 1028, 945, 868, 809, 749, 676, 611, 550, 480, 390, 305, 242, 186, 128, 70, -7, -123, -184, 48, 577, 1008, 700, -446, -1086, -623, -390, -659, -666, -591, -686, -734, -727, -776, -822, -829, -853, -899, -921, -928, -950, -987, -1013, -1035, -1076, -1122, -1149, -1185, -1241, -1287, -1326, -1362, -1392, -1428, -1474, -1520, -1559, -1586, -1603, -1629, -1661, -1678, -1687, -1700, -1714, -1731, -1741, -1736, -1748])
('ECG', 1747930665504680270, [-1775, -1770, -1763, -1792, -1816, -1816, -1830, -1857, -1847, -1826, -1845, -1874, -1891, -1894, -1889, -1896, -1908, -1908, -1906, -1901, -1896, -1906, -1915, -1915, -1915, -1911, -1911, -1908, -1906, -1908, -1920, -1923, -1906, -1891, -1891, -1901, -1901, -1894, -1896, -1901, -1886, -1867, -1862, -1862, -1847, -1821, -1826, -1852, -1857, -1850, -1843, -1835, -1840, -1881, -1937, -1811, -1324, -727, -545, -1263, -2277, -2245, -1709, -1765, -1901, -1765, -1736, -1782, -1741, -1712, -1716, -1687, -1670])
('ECG', 1747930666066369146, [-1678, -1649, -1607, -1590, -1581, -1573, -1564, -1535, -1522, -1539, -1549, -1561, -1576, -1578, -1573, -1573, -1598, -1634, -1634, -1617, -1629, -1646, -1646, -1644, -1641, -1629, -1615, -1607, -1607, -1590, -1564, -1547, -1539, -1527, -1527, -1537, -1520, -1496, -1491, -1496, -1496, -1491, -1472, -1457, -1467, -1467, -1440, -1435, -1442, -1430, -1425, -1433, -1418, -1394, -1392, -1396, -1384, -1372, -1377, -1367, -1341, -1321, -1319, -1321, -1321, -1319, -1304, -1290, -1292, -1290, -1273, -1263, -1261])
('ECG', 1747930666628088540, [-1248, -1234, -1236, -1244, -1241, -1229, -1219, -1214, -1217, -1202, -1168, -1151, -1149, -1132, -1115, -1137, -1168, -1176, -1159, -1130, -1115, -1134, -1185, -1195, -967, -438, 41, -67, -953, -1629, -1295, -960, -1147, -1171, -1040, -1067, -1093, -1042, -1023, -1013, -982, -967, -955, -931, -919, -911, -892, -880, -875, -870, -870, -870, -870, -885, -902, -916, -926, -936, -957, -977, -974, -979, -996, -1004, -1008, -1011, -1004, -1004, -1004, -989, -972, -955, -938])
('ECG', 1747930667189777416, [-940, -943, -919, -906, -914, -911, -904, -902, -899, -897, -894, -880, -875, -887, -887, -877, -873, -868, -853, -851, -853, -851, -843, -836, -836, -834, -824, -817, -819, -824, -826, -822, -805, -795, -793, -785, -788, -790, -788, -783, -778, -776, -771, -768, -768, -771, -771, -766, -759, -751, -746, -744, -744, -749, -749, -734, -722, -720, -715, -698, -691, -705, -725, -734, -725, -712, -712, -727, -768, -795, -599, -84, 404])
('ECG', 1747930667751466294, [339, -531, -1265, -953, -569, -742, -778, -649, -676, -703, -647, -640, -647, -618, -594, -589, -579, -565, -548, -535, -531, -526, -521, -521, -526, -545, -567, -574, -572, -582, -601, -618, -635, -647, -657, -664, -671, -679, -679, -669, -669, -669, -662, -649, -635, -625, -637, -647, -628, -606, -608, -611, -596, -591, -601, -615, -632, -630, -620, -637, -637, -608, -608, -625, -628, -625, -630, -630, -628, -628, -620, -608, -608])
('ECG', 1747930668313175516, [-615, -608, -603, -615, -623, -611, -606, -601, -584, -586, -615, -603, -562, -562, -584, -582, -577, -586, -584, -565, -552, -543, -535, -540, -555, -557, -552, -557, -565, -562, -562, -591, -640, -538, -92, 502, 688, -89, -1173, -1113, -506, -545, -664, -509, -494, -567, -516, -472, -494, -485, -451, -443, -434, -409, -402, -409, -392, -378, -388, -388, -388, -407, -421, -436, -463, -485, -497, -518, -545, -557, -565, -572, -569])
('ECG', 1747930668874905081, [-577, -591, -596, -596, -594, -577, -550, -543, -545, -543, -535, -533, -535, -538, -543, -538, -523, -516, -521, -518, -516, -528, -535, -533, -528, -531, -528, -509, -504, -538, -550, -504, -475, -497, -516, -511, -502, -509, -511, -502, -499, -497, -489, -494, -504, -506, -499, -485, -487, -499, -494, -482, -468, -453, -455, -460, -451, -458, -489, -502, -492, -487, -489, -504, -533, -560, -414, 60, 591, 618, -198, -1045, -831])
('ECG', 1747930669436563440, [-368, -497, -586, -448, -448, -497, -460, -443, -446, -414, -392, -390, -375, -366, -354, -334, -320, -327, -334, -329, -332, -344, -341, -346, -373, -402, -409, -429, -487, -518, -504, -511, -531, -543, -552, -540, -526, -528, -523, -506, -499, -487, -487, -509, -504, -497, -499, -482, -477, -494, -487, -458, -465, -506, -509, -477, -489, -518, -499, -458, -436, -436, -460, -480, -458, -468, -511, -465, -404, -434, -443, -419, -434])
('ECG', 1747930669998282834, [-487, -509, -480, -463, -472, -475, -472, -451, -426, -443, -441, -426, -480, -506, -465, -475, -492, -455, -448, -489, -548, -560, -351, 121, 555, 366, -535, -1025, -620, -395, -550, -526, -497, -535, -463, -414, -448, -431, -402, -424, -419, -366, -327, -341, -358, -334, -317, -341, -375, -388, -363, -324, -349, -421, -424, -412, -463, -475, -451, -480, -516, -518, -533, -528, -487, -492, -523, -509, -477, -470, -489, -494, -446])
('ECG', 1747930670559971710, [-417, -448, -475, -465, -472, -489, -448, -409, -455, -492, -441, -412, -451, -472, -480, -475, -438, -429, -451, -436, -419, -438, -446, -451, -455, -438, -426, -436, -429, -400, -402, -419, -397, -373, -392, -424, -431, -431, -434, -431, -438, -460, -506, -475, -167, 334, 628, 240, -688, -1016, -565, -385, -482, -390, -349, -417, -402, -363, -363, -356, -339, -339, -337, -322, -293, -264, -261, -276, -283, -278, -281, -286, -293])
('ECG', 1747930671121660588, [-300, -312, -327, -341, -363, -395, -426, -426, -414, -436, -470, -472, -455, -451, -458, -453, -436, -429, -434, -426, -414, -417, -424, -426, -419, -409, -412, -419, -419, -419, -417, -417, -417, -419, -419, -419, -419, -421, -419, -417, -419, -419, -417, -417, -417, -417, -412, -409, -417, -412, -395, -378, -375, -375, -368, -380, -404, -409, -400, -397, -402, -407, -436, -497, -402, 38, 630, 848, 126, -953, -955, -390, -409])
('ECG', 1747930671683349464, [-516, -373, -361, -419, -371, -337, -356, -351, -334, -332, -324, -295, -264, -244, -244, -249, -252, -257, -269, -283, -298, -312, -332, -354, -375, -402, -417, -414, -419, -443, -463, -472, -470, -465, -468, -468, -458, -446, -438, -438, -436, -431, -429, -424, -419, -417, -421, -421, -419, -417, -417, -414, -419, -426, -426, -424, -421, -419, -421, -426, -424, -424, -426, -417, -412, -419, -429, -426, -409, -392, -390, -385, -368])
('ECG', 1747930672245053600, [-378, -407, -417, -414, -412, -404, -402, -429, -492, -470, -126, 492, 940, 565, -594, -1062, -506, -307, -521, -453, -356, -417, -404, -346, -354, -356, -329, -322, -315, -295, -283, -276, -264, -252, -242, -244, -252, -254, -261, -286, -303, -312, -332, -361, -388, -407, -421, -443, -455, -451, -446, -451, -448, -441, -438, -429, -421, -419, -414, -409, -407, -402, -400, -397, -395, -390, -390, -395, -395, -392, -395, -395, -397])
('ECG', 1747930672806757734, [-400, -397, -400, -402, -402, -402, -400, -392, -392, -397, -395, -390, -390, -392, -390, -392, -397, -395, -380, -356, -354, -358, -349, -354, -378, -392, -392, -388, -385, -388, -404, -460, -460, -157, 436, 892, 596, -489, -1033, -528, -281, -497, -453, -341, -400, -404, -346, -341, -349, -320, -307, -305, -291, -271, -266, -259, -242, -232, -237, -244, -249, -259, -274, -288, -303, -320, -344, -363, -388, -409, -434, -458, -480])
('ECG', 1747930673368446610, [-472, -426, -392, -402, -421, -419, -414, -412, -400, -392, -402, -404, -404, -409, -404, -395, -395, -390, -400, -426, -431, -407, -383, -383, -402, -402, -388, -397, -409, -395, -375, -388, -402, -392, -383, -378, -373, -378, -390, -383, -373, -383, -388, -383, -385, -388, -380, -380, -390, -385, -356, -332, -339, -351, -344, -349, -371, -388, -383, -366, -368, -373, -395, -458, -390, 53, 715, 1069, 438, -793, -982, -339, -300])
('ECG', 1747930673930135486, [-516, -388, -307, -363, -344, -317, -334, -317, -303, -317, -322, -300, -252, -215, -237, -264, -252, -247, -257, -254, -278, -315, -317, -320, -349, -361, -346, -373, -414, -417, -417, -434, -436, -438, -443, -424, -395, -395, -407, -400, -390, -404, -402, -363, -358, -385, -385, -371, -380, -397, -392, -395, -400, -368, -356, -395, -409, -395, -380, -371, -383, -390, -366, -368, -388, -383, -385, -414, -419, -383, -356, -356, -354])
('ECG', 1747930674491824364, [-363, -383, -392, -414, -417, -363, -307, -307, -329, -334, -334, -354, -375, -378, -371, -368, -368, -392, -468, -438, -46, 611, 1040, 579, -637, -1045, -426, -261, -499, -417, -324, -392, -375, -317, -327, -327, -300, -288, -283, -266, -249, -240, -232, -225, -225, -223, -223, -235, -252, -264, -278, -298, -315, -332, -356, -383, -400, -407, -414, -421, -419, -417, -414, -412, -407, -402, -400, -395, -388, -385, -380, -373, -371])
('ECG', 1747930675053533586, [-373, -375, -373, -373, -375, -378, -380, -380, -380, -385, -388, -383, -380, -383, -383, -380, -383, -383, -378, -375, -378, -378, -375, -371, -371, -378, -371, -358, -361, -368, -368, -363, -363, -361, -361, -363, -373, -375, -361, -339, -332, -327, -315, -320, -344, -361, -368, -366, -358, -356, -371, -429, -438, -162, 404, 831, 555, -417, -921, -477, -235, -438, -419, -320, -366, -368, -317, -320, -322, -298, -283, -278, -264])
('ECG', 1747930675615217376, [-252, -240, -227, -220, -218, -215, -220, -227, -232, -247, -271, -291, -298, -317, -349, -378, -395, -407, -419, -429, -429, -421, -417, -421, -421, -409, -402, -400, -392, -388, -383, -383, -383, -380, -373, -368, -371, -373, -375, -378, -380, -380, -383, -385, -388, -385, -378, -375, -378, -380, -380, -375, -373, -375, -378, -378, -373, -363, -354, -361, -375, -373, -361, -354, -351, -358, -366, -358, -351, -354, -351, -344, -351])
('ECG', 1747930676176901166, [-358, -356, -349, -349, -351, -354, -349, -349, -356, -358, -349, -337, -332, -322, -317, -317, -322, -341, -361, -361, -349, -337, -339, -380, -438, -371, 19, 603, 899, 320, -763, -928, -349, -293, -472, -356, -300, -358, -329, -286, -303, -300, -281, -274, -261, -242, -235, -235, -232, -230, -225, -210, -203, -227, -252, -269, -300, -324, -327, -324, -339, -356, -371, -390, -404, -417, -421, -421, -419, -409, -402, -409, -409])
('ECG', 1747930676738584956, [-383, -368, -380, -385, -373, -366, -368, -363, -361, -368, -375, -371, -368, -373, -378, -373, -375, -380, -378, -375, -380, -390, -385, -368, -358, -363, -361, -354, -361, -368, -366, -361, -363, -373, -383, -366, -332, -334, -354, -349, -341, -341, -341, -351, -356, -354, -356, -354, -337, -317, -312, -315, -305, -307, -329, -349, -351, -344, -339, -346, -378, -436, -378, 29, 642, 931, 346, -705, -860, -317, -283, -472, -368])
('ECG', 1747930677300268746, [-312, -371, -344, -307, -317, -307, -283, -278, -266, -254, -247, -235, -230, -237, -223, -198, -191, -206, -227, -247, -266, -283, -303, -322, -351, -375, -390, -402, -412, -419, -421, -419, -419, -419, -414, -404, -402, -404, -404, -383, -354, -358, -371, -366, -361, -361, -363, -361, -361, -358, -361, -368, -366, -366, -366, -363, -363, -366, -363, -356, -356, -361, -356, -346, -354, -358, -351, -346, -349, -349, -344, -344, -344])
('ECG', 1747930677861957622, [-344, -341, -341, -344, -341, -337, -339, -341, -337, -332, -329, -334, -334, -332, -334, -334, -329, -329, -334, -334, -332, -332, -337, -346, -346, -324, -307, -305, -300, -291, -295, -320, -337, -339, -334, -332, -329, -346, -402, -417, -162, 383, 819, 615, -295, -868, -487, -215, -414, -417, -307, -346, -361, -322, -329, -324, -283, -259, -247, -230, -230, -230, -220, -213, -206, -203, -208, -218, -227, -242, -259, -274, -286])
('ECG', 1747930678423646498, [-303, -322, -341, -358, -371, -383, -392, -397, -402, -404, -397, -390, -385, -380, -375, -368, -366, -361, -356, -354, -356, -354, -351, -351, -351, -354, -356, -358, -361, -363, -361, -358, -361, -366, -361, -358, -363, -363, -356, -361, -366, -363, -358, -361, -358, -351, -354, -358, -354, -349, -351, -349, -344, -344, -344, -346, -346, -339, -339, -344, -346, -346, -349, -349, -344, -334, -322, -317, -312, -303, -312, -339, -354])
('ECG', 1747930678985335374, [-351, -341, -339, -349, -375, -429, -361, 33, 589, 807, 203, -763, -836, -305, -286, -448, -346, -305, -361, -329, -291, -303, -293, -269, -264, -252, -235, -227, -218, -206, -198, -196, -196, -201, -215, -230, -244, -264, -281, -300, -317, -329, -349, -371, -385, -390, -397, -407, -409, -402, -395, -390, -388, -380, -371, -363, -358, -358, -361, -358, -358, -354, -346, -351, -356, -354, -356, -361, -361, -358, -361, -366, -366])
('ECG', 1747930679547024250, [-363, -361, -363, -361, -356, -356, -358, -358, -354, -351, -354, -356, -351, -346, -346, -346, -349, -346, -344, -344, -346, -344, -344, -344, -337, -337, -346, -346, -339, -341, -349, -344, -327, -312, -317, -317, -300, -305, -332, -346, -346, -344, -341, -341, -363, -419, -390, -43, 528, 841, 351, -671, -928, -385, -261, -441, -358, -293, -346, -327, -288, -298, -293, -266, -254, -249, -237, -225, -213, -208, -206, -201, -203])
('ECG', 1747930680108687696, [-206, -213, -232, -249, -264, -276, -291, -307, -329, -346, -356, -373, -385, -390, -392, -392, -395, -392, -380, -371, -371, -366, -361, -361, -358, -349, -349, -351, -346, -344, -346, -346, -346, -351, -356, -354, -346, -349, -356, -354, -354, -356, -354, -349, -351, -351, -349, -351, -351, -349, -346, -344, -344, -344, -344, -339, -339, -339, -339, -339, -337, -337, -339, -337, -334, -334, -337, -337, -332, -327, -329, -332, -329])
('ECG', 1747930680670371484, [-332, -341, -337, -317, -307, -307, -300, -291, -305, -332, -341, -332, -324, -327, -339, -375, -417, -261, 230, 749, 734, -89, -860, -615, -210, -358, -429, -305, -320, -354, -300, -283, -295, -278, -259, -254, -242, -225, -215, -208, -201, -191, -194, -196, -198, -210, -227, -244, -259, -271, -286, -303, -327, -346, -358, -373, -383, -390, -395, -392, -390, -383, -375, -371, -368, -361, -356, -358, -356, -344, -344, -349, -349])
('ECG', 1747930681232055276, [-344, -346, -354, -351, -344, -346, -351, -351, -354, -361, -358, -351, -351, -354, -354, -349, -351, -354, -346, -344, -351, -351, -341, -339, -344, -344, -341, -339, -339, -339, -339, -339, -337, -334, -337, -337, -334, -334, -334, -329, -332, -337, -334, -327, -329, -341, -344, -334, -322, -310, -305, -295, -295, -315, -337, -344, -339, -337, -334, -346, -390, -412, -198, 322, 768, 594, -288, -877, -518, -215, -395, -412, -305])
('ECG', 1747930681793739066, [-339, -354, -303, -293, -298, -278, -264, -261, -244, -227, -223, -218, -203, -194, -198, -203, -206, -218, -237, -254, -266, -276, -295, -317, -334, -351, -361, -368, -378, -385, -390, -390, -385, -383, -380, -371, -361, -361, -361, -358, -354, -349, -346, -349, -344, -341, -346, -349, -346, -349, -358, -356, -349, -351, -354, -354, -354, -354, -351, -354, -356, -356, -354, -349, -346, -346, -349, -351, -346, -334, -332, -337, -339])
('ECG', 1747930682355407596, [-339, -339, -332, -332, -337, -334, -332, -334, -341, -337, -327, -332, -344, -341, -334, -329, -315, -298, -298, -300, -286, -291, -317, -337, -332, -322, -327, -332, -356, -407, -349, 43, 603, 807, 189, -766, -829, -300, -271, -421, -324, -288, -339, -303, -264, -281, -274, -252, -244, -235, -220, -213, -203, -194, -191, -181, -179, -191, -208, -218, -227, -242, -264, -283, -288, -305, -332, -349, -356, -371, -385, -388, -392])
('ECG', 1747930682917076128, [-392, -385, -373, -361, -358, -356, -346, -339, -337, -337, -334, -334, -337, -337, -337, -339, -339, -341, -344, -341, -344, -346, -344, -337, -339, -346, -346, -344, -346, -344, -337, -337, -341, -341, -339, -337, -337, -337, -334, -332, -327, -332, -337, -332, -329, -329, -329, -329, -329, -329, -327, -327, -329, -334, -334, -332, -329, -312, -295, -300, -300, -288, -305, -334, -339, -332, -329, -334, -346, -395, -429, -225, 305])
('ECG', 1747930683478754830, [778, 620, -305, -965, -586, -232, -404, -421, -303, -337, -358, -307, -295, -305, -283, -266, -259, -244, -230, -223, -210, -203, -201, -198, -196, -208, -227, -244, -254, -269, -283, -305, -327, -344, -361, -373, -383, -397, -404, -400, -397, -397, -385, -380, -380, -375, -371, -363, -356, -354, -356, -354, -349, -351, -351, -349, -349, -349, -349, -351, -358, -358, -349, -344, -349, -351, -349, -351, -354, -354, -346, -344, -346])
('ECG', 1747930684040443706, [-349, -349, -349, -354, -349, -334, -329, -334, -337, -337, -337, -339, -332, -327, -329, -327, -324, -327, -329, -329, -329, -332, -329, -332, -337, -329, -307, -298, -300, -293, -293, -312, -332, -334, -327, -322, -332, -361, -407, -317, 101, 645, 788, 133, -756, -739, -259, -293, -424, -317, -298, -349, -315, -283, -295, -286, -259, -254, -244, -223, -210, -206, -194, -184, -181, -184, -191, -203, -210, -220, -240, -259, -274])
('ECG', 1747930684602102066, [-291, -315, -339, -356, -368, -375, -380, -388, -395, -395, -383, -371, -371, -368, -358, -351, -354, -351, -341, -339, -346, -344, -332, -327, -334, -341, -339, -334, -334, -339, -339, -339, -346, -344, -339, -344, -341, -329, -329, -334, -332, -332, -329, -329, -334, -337, -329, -315, -310, -315, -322, -327, -327, -322, -317, -312, -312, -315, -315, -312, -310, -312, -310, -307, -310, -317, -322, -315, -298, -283, -288, -286, -264])
('ECG', 1747930685163790942, [-271, -303, -324, -322, -310, -307, -320, -349, -388, -295, 121, 666, 807, 106, -817, -768, -261, -298, -414, -293, -278, -332, -288, -257, -266, -252, -232, -230, -218, -206, -196, -186, -174, -169, -172, -177, -181, -186, -196, -210, -232, -249, -261, -278, -300, -322, -339, -354, -363, -368, -373, -378, -380, -375, -363, -354, -351, -346, -339, -334, -329, -329, -332, -327, -327, -324, -320, -324, -329, -332, -332, -332, -334])
('ECG', 1747930685725449300, [-339, -339, -337, -337, -337, -332, -334, -341, -339, -332, -329, -329, -327, -327, -327, -324, -327, -329, -324, -317, -317, -320, -320, -320, -322, -324, -327, -317, -303, -303, -312, -315, -310, -315, -322, -320, -305, -293, -291, -283, -274, -283, -307, -320, -312, -307, -312, -315, -337, -395, -327, 84, 659, 877, 274, -703, -795, -281, -266, -426, -322, -281, -339, -310, -274, -286, -281, -249, -240, -235, -220, -206, -198])
('ECG', 1747930686287138176, [-191, -179, -177, -179, -181, -186, -196, -210, -225, -237, -252, -271, -295, -320, -337, -349, -363, -373, -371, -363, -361, -363, -363, -366, -373, -371, -346, -334, -344, -341, -312, -303, -320, -329, -324, -329, -339, -334, -332, -332, -320, -320, -327, -324, -329, -346, -349, -332, -320, -329, -349, -344, -332, -346, -354, -329, -315, -329, -329, -322, -324, -327, -320, -320, -322, -317, -317, -320, -312, -310, -320, -327, -315])
('ECG', 1747930686848801622, [-295, -300, -320, -324, -317, -307, -293, -286, -286, -269, -266, -295, -320, -324, -320, -317, -315, -322, -356, -388, -218, 266, 729, 649, -160, -843, -577, -223, -383, -431, -310, -332, -371, -320, -303, -312, -298, -276, -264, -254, -244, -235, -223, -210, -198, -194, -191, -196, -206, -215, -225, -242, -264, -281, -303, -327, -334, -344, -366, -383, -385, -383, -378, -375, -383, -383, -373, -366, -361, -351, -344, -341, -327])
('ECG', 1747930687410485410, [-307, -303, -317, -329, -327, -320, -317, -320, -329, -341, -344, -337, -337, -339, -334, -329, -332, -334, -332, -327, -317, -315, -322, -317, -315, -320, -317, -312, -315, -322, -320, -317, -312, -310, -307, -307, -295, -274, -271, -288, -281, -269, -288, -315, -324, -322, -310, -305, -322, -373, -388, -155, 383, 829, 577, -438, -1025, -557, -232, -390, -356, -259, -310, -307, -257, -266, -269, -240, -227, -225, -208, -194, -189])
('ECG', 1747930687972143770, [-184, -174, -162, -155, -162, -174, -184, -203, -223, -237, -254, -271, -295, -324, -346, -361, -371, -385, -402, -407, -407, -402, -395, -390, -383, -368, -358, -361, -356, -349, -351, -354, -349, -351, -356, -354, -361, -366, -351, -346, -358, -349, -329, -334, -351, -354, -356, -361, -356, -351, -356, -356, -349, -339, -332, -329, -339, -354, -351, -337, -322, -317, -320, -305, -295, -312, -341, -351, -344, -341, -339, -354, -414])
('ECG', 1747930688533802128, [-441, -160, 468, 989, 732, -451, -1137, -584, -227, -436, -392, -271, -334, -334, -271, -278, -286, -259, -242, -232, -218, -206, -196, -181, -169, -164, -164, -164, -167, -169, -177, -198, -230, -261, -276, -278, -298, -351, -392, -404, -412, -419, -414, -409, -407, -400, -390, -380, -375, -371, -358, -356, -358, -349, -344, -346, -346, -339, -337, -341, -346, -337, -334, -341, -341, -337, -341, -346, -344, -337, -334, -334, -337])
('ECG', 1747930689095460486, [-334, -339, -346, -344, -327, -307, -307, -303, -293, -305, -329, -332, -324, -320, -320, -322, -346, -409, -392, -21, 652, 1122, 671, -589, -1064, -438, -215, -446, -378, -271, -337, -332, -278, -283, -281, -252, -242, -235, -218, -206, -191, -169, -162, -162, -160, -160, -172, -186, -198, -215, -235, -257, -286, -317, -341, -356, -373, -388, -392, -392, -392, -388, -385, -378, -373, -368, -358, -351, -349, -346, -341, -339, -337])
('ECG', 1747930689657149362, [-334, -334, -337, -334, -332, -332, -332, -334, -334, -332, -337, -337, -332, -332, -337, -332, -322, -332, -341, -339, -322, -307, -300, -295, -283, -288, -315, -332, -327, -320, -320, -322, -329, -371, -407, -201, 366, 936, 873, -155, -1030, -671, -206, -371, -414, -278, -303, -329, -278, -271, -283, -257, -232, -235, -220, -196, -189, -184, -167, -155, -160, -162, -162, -174, -191, -198, -206, -225, -252, -276, -300, -320, -337])
('ECG', 1747930690218807720, [-351, -356, -356, -361, -358, -354, -349, -344, -341, -334, -327, -327, -324, -317, -312, -312, -315, -312, -312, -317, -315, -312, -317, -322, -322, -324, -320, -322, -327, -324, -317, -317, -322, -320, -315, -317, -317, -315, -312, -315, -317, -312, -312, -324, -324, -305, -286, -283, -281, -269, -274, -303, -320, -317, -317, -317, -315, -324, -373, -388, -123, 446, 909, 659, -404, -1008, -511, -198, -404, -380, -266, -317, -327])
('ECG', 1747930690780466078, [-271, -271, -281, -259, -242, -235, -218, -201, -196, -186, -174, -172, -177, -186, -191, -201, -225, -247, -264, -261, -254, -271, -310, -322, -317, -341, -368, -368, -366, -368, -366, -371, -373, -368, -361, -346, -324, -317, -329, -332, -327, -329, -341, -341, -334, -337, -351, -351, -351, -349, -346, -351, -356, -354, -351, -351, -351, -341, -334, -344, -349, -341, -346, -358, -344, -320, -307, -305, -322, -327, -315, -312, -317])
('ECG', 1747930691342124438, [-320, -320, -322, -317, -307, -307, -307, -303, -312, -317, -303, -291, -286, -274, -274, -278, -274, -291, -317, -312, -291, -288, -300, -337, -402, -385, -72, 499, 945, 657, -434, -994, -477, -203, -412, -366, -259, -320, -324, -264, -254, -257, -242, -237, -237, -230, -210, -198, -194, -184, -181, -189, -191, -189, -208, -235, -249, -259, -274, -283, -295, -312, -324, -339, -351, -349, -354, -368, -361, -356, -363, -354, -337])
('ECG', 1747930691903772624, [-332, -324, -315, -317, -324, -327, -327, -332, -332, -322, -317, -329, -334, -334, -337, -341, -339, -337, -339, -344, -337, -329, -334, -344, -337, -329, -332, -334, -329, -329, -329, -332, -329, -324, -324, -329, -317, -300, -295, -295, -283, -286, -312, -334, -337, -329, -320, -317, -332, -388, -424, -169, 446, 991, 776, -400, -1147, -599, -194, -404, -375, -240, -298, -312, -254, -252, -257, -227, -215, -210, -191, -174, -172])
('ECG', 1747930692465425896, [-167, -160, -152, -155, -169, -179, -196, -213, -225, -242, -261, -278, -298, -320, -337, -346, -361, -373, -375, -363, -358, -361, -358, -346, -341, -339, -334, -332, -332, -334, -327, -324, -329, -329, -327, -329, -329, -327, -329, -337, -339, -332, -324, -332, -334, -329, -332, -334, -332, -327, -327, -332, -329, -320, -317, -320, -320, -317, -317, -320, -327, -327, -312, -298, -288, -283, -274, -266, -286, -312, -312, -305, -307])
('ECG', 1747930693027079168, [-312, -322, -368, -414, -210, 392, 1020, 989, -84, -1045, -676, -179, -390, -448, -283, -315, -356, -293, -276, -293, -271, -252, -240, -223, -210, -206, -198, -186, -181, -181, -184, -194, -213, -232, -244, -257, -274, -286, -307, -332, -346, -356, -368, -375, -375, -378, -380, -378, -371, -366, -361, -356, -351, -341, -337, -339, -339, -329, -327, -337, -339, -334, -337, -337, -334, -337, -337, -337, -339, -341, -339, -332, -334])
('ECG', 1747930693588727352, [-339, -329, -317, -315, -312, -310, -312, -315, -307, -307, -315, -317, -317, -322, -324, -310, -291, -293, -291, -276, -286, -315, -329, -322, -312, -310, -320, -358, -426, -334, 152, 809, 1040, 266, -863, -846, -242, -293, -448, -307, -283, -346, -303, -271, -286, -269, -249, -247, -230, -210, -201, -191, -186, -181, -177, -179, -189, -201, -215, -235, -249, -259, -278, -303, -327, -341, -351, -366, -378, -380, -380, -383, -378])
('ECG', 1747930694150385710, [-368, -363, -358, -349, -341, -334, -332, -334, -332, -329, -332, -329, -324, -327, -329, -332, -334, -337, -334, -332, -332, -334, -334, -332, -329, -327, -327, -332, -329, -322, -324, -329, -324, -317, -320, -315, -310, -310, -310, -310, -310, -305, -303, -310, -315, -305, -293, -276, -271, -269, -264, -274, -295, -307, -310, -307, -303, -300, -322, -388, -373, -31, 560, 923, 485, -572, -902, -361, -215, -414, -341, -261, -320])
('ECG', 1747930694712044070, [-310, -266, -274, -269, -242, -235, -227, -208, -198, -198, -186, -174, -169, -174, -181, -191, -208, -225, -237, -252, -266, -281, -298, -310, -324, -344, -361, -371, -373, -373, -366, -356, -346, -332, -329, -341, -341, -332, -327, -327, -324, -324, -324, -327, -324, -320, -317, -322, -327, -324, -324, -327, -332, -332, -332, -329, -327, -327, -324, -324, -332, -329, -324, -329, -327, -315, -317, -329, -324, -312, -310, -312, -312])
('ECG', 1747930695273692256, [-315, -320, -320, -317, -310, -288, -276, -283, -278, -266, -283, -307, -312, -312, -310, -305, -310, -346, -395, -261, 252, 865, 953, 38, -996, -807, -244, -317, -390, -259, -274, -305, -249, -242, -264, -240, -218, -223, -208, -189, -181, -167, -160, -172, -184, -179, -186, -208, -225, -240, -257, -266, -281, -295, -307, -315, -320, -334, -356, -371, -363, -356, -349, -341, -339, -329, -322, -322, -315, -305, -307, -315, -315])
('ECG', 1747930695835345528, [-307, -310, -320, -315, -305, -305, -303, -307, -312, -305, -295, -303, -320, -315, -303, -307, -310, -305, -303, -300, -305, -315, -315, -322, -332, -305, -271, -281, -298, -274, -266, -303, -312, -298, -307, -305, -295, -346, -443, -390, 84, 839, 1246, 516, -914, -1127, -324, -225, -446, -295, -235, -307, -259, -232, -252, -220, -210, -223, -189, -167, -160, -140, -128, -128, -157, -189, -164, -150, -213, -269, -252, -227, -261])
('ECG', 1747930696396988626, [-310, -322, -329, -344, -356, -356, -329, -305, -337, -400, -402, -366, -368, -378, -371, -363, -358, -341, -332, -341, -337, -310, -259, -227, -293, -368, -252, 9, 70, 26, 705, 1678, 1004, -475, -589, -407, -768, -734, -528, -589, -611, -545, -518, -489, -475, -472, -443, -455, -506, -494, -441, -431, -460, -482, -548, -538, -113, 640, 1079, 438, -953, -1246, -446, -307, -560, -400, -295, -402, -380, -300, -310, -312, -274])
('ECG', 1747930696958621554, [-264, -261, -237, -223, -223, -218, -208, -203, -210, -232, -259, -283, -307, -327, -341, -356, -373, -383, -390, -404, -417, -424, -426, -421, -412, -407, -402, -397, -390, -388, -378, -371, -371, -368, -361, -363, -366, -361, -358, -371, -375, -368, -368, -373, -378, -375, -371, -371, -378, -380, -378, -375, -373, -366, -363, -366, -373, -373, -363, -351, -344, -339, -327, -329, -356, -368, -358, -358, -361, -356, -366, -419, -463])
('ECG', 1747930697520274824, [-225, 429, 1040, 826, -426, -1236, -625, -164, -434, -426, -257, -327, -356, -278, -269, -286, -254, -235, -237, -225, -210, -210, -213, -213, -218, -225, -240, -259, -278, -300, -324, -332, -332, -346, -358, -356, -363, -373, -378, -378, -375, -368, -363, -358, -354, -344, -339, -341, -341, -339, -334, -332, -337, -337, -337, -341, -341, -341, -346, -346, -344, -346, -344, -344, -344, -344, -339, -341, -346, -344, -339, -339, -341])
('ECG', 1747930698081928098, [-341, -334, -337, -339, -337, -327, -322, -327, -334, -334, -329, -317, -303, -303, -298, -295, -310, -324, -324, -322, -324, -324, -332, -375, -400, -155, 477, 1025, 773, -385, -1093, -528, -130, -402, -407, -249, -300, -322, -259, -257, -261, -235, -220, -220, -206, -191, -186, -181, -177, -177, -186, -201, -215, -237, -257, -269, -283, -298, -305, -315, -329, -339, -349, -356, -358, -363, -361, -356, -349, -344, -341, -337, -329])
('ECG', 1747930698643561024, [-324, -322, -322, -324, -324, -320, -320, -324, -327, -324, -322, -327, -334, -332, -324, -327, -332, -329, -329, -334, -332, -327, -327, -327, -322, -322, -322, -317, -317, -320, -317, -322, -332, -332, -317, -298, -293, -288, -274, -283, -310, -320, -315, -312, -312, -317, -344, -409, -354, 97, 788, 1137, 485, -771, -977, -291, -227, -463, -337, -261, -339, -312, -261, -271, -261, -235, -232, -223, -201, -191, -194, -189, -184])
('ECG', 1747930699205219382, [-186, -196, -208, -227, -247, -266, -286, -298, -300, -310, -329, -339, -346, -354, -354, -354, -366, -366, -351, -339, -337, -332, -329, -324, -322, -322, -320, -315, -320, -324, -322, -320, -320, -324, -324, -317, -322, -329, -324, -322, -324, -324, -322, -322, -320, -320, -322, -320, -317, -317, -312, -312, -324, -329, -315, -295, -288, -288, -274, -274, -303, -320, -312, -307, -310, -310, -324, -383, -392, -80, 567, 1052, 686])
('ECG', 1747930699766877740, [-516, -1076, -472, -177, -409, -363, -247, -310, -310, -247, -249, -259, -230, -210, -210, -196, -179, -177, -172, -167, -169, -179, -194, -210, -223, -237, -259, -274, -281, -291, -305, -324, -334, -332, -344, -356, -358, -351, -346, -344, -341, -337, -322, -317, -322, -322, -317, -317, -317, -317, -317, -320, -322, -320, -320, -322, -322, -320, -322, -324, -320, -320, -320, -317, -320, -320, -317, -324, -332, -324, -305, -291, -288])
('ECG', 1747930700328510668, [-278, -266, -286, -317, -317, -303, -298, -303, -307, -337, -385, -249, 276, 890, 955, 33, -984, -778, -206, -300, -400, -259, -264, -317, -271, -235, -242, -232, -213, -201, -191, -181, -174, -169, -164, -167, -169, -179, -194, -210, -227, -244, -259, -269, -278, -293, -310, -322, -329, -337, -349, -356, -351, -344, -339, -337, -332, -329, -327, -322, -317, -315, -315, -317, -317, -315, -315, -317, -317, -317, -320, -320, -317])
('ECG', 1747930700890163940, [-320, -320, -320, -317, -320, -322, -317, -310, -315, -317, -322, -329, -322, -298, -286, -286, -278, -271, -288, -312, -315, -307, -305, -305, -307, -334, -380, -259, 230, 817, 880, 7, -960, -778, -237, -305, -390, -264, -269, -315, -269, -242, -249, -237, -220, -213, -201, -186, -177, -167, -164, -172, -177, -181, -198, -213, -230, -244, -254, -261, -276, -286, -298, -317, -327, -329, -341, -354, -349, -337, -334, -334, -329])
('ECG', 1747930701451822298, [-322, -322, -322, -320, -315, -315, -315, -315, -312, -312, -312, -310, -310, -312, -315, -312, -310, -315, -315, -315, -317, -315, -307, -307, -310, -310, -310, -310, -310, -312, -317, -317, -307, -295, -281, -276, -271, -264, -274, -300, -312, -303, -300, -303, -305, -322, -378, -327, 67, 666, 933, 303, -776, -904, -317, -244, -400, -295, -249, -310, -283, -242, -249, -247, -223, -215, -210, -194, -181, -179, -177, -174, -179])
('ECG', 1747930702013470484, [-186, -194, -213, -232, -242, -254, -261, -269, -281, -288, -300, -315, -324, -329, -334, -341, -334, -327, -324, -324, -317, -312, -312, -310, -305, -307, -310, -310, -307, -307, -307, -310, -312, -312, -310, -310, -317, -315, -307, -310, -312, -307, -310, -312, -310, -305, -307, -307, -305, -305, -303, -298, -300, -303, -300, -300, -310, -315, -295, -274, -271, -271, -261, -266, -293, -307, -303, -298, -298, -295, -310, -366, -344])
('ECG', 1747930702575123756, [9, 611, 940, 414, -669, -916, -341, -218, -400, -315, -244, -303, -286, -242, -249, -242, -218, -210, -203, -191, -184, -177, -167, -164, -172, -181, -186, -203, -225, -235, -247, -264, -271, -276, -288, -303, -310, -315, -322, -334, -337, -327, -324, -324, -317, -312, -312, -310, -300, -303, -303, -298, -298, -303, -305, -303, -303, -305, -307, -310, -307, -303, -300, -307, -312, -310, -307, -307, -305, -303, -303, -305, -305])
('ECG', 1747930703136766854, [-307, -305, -303, -298, -300, -303, -295, -288, -291, -295, -293, -293, -298, -303, -298, -276, -259, -264, -264, -249, -257, -288, -300, -288, -281, -288, -295, -322, -380, -264, 223, 807, 906, 77, -902, -751, -213, -291, -388, -257, -259, -305, -259, -235, -244, -225, -208, -210, -196, -177, -169, -167, -164, -160, -162, -179, -194, -201, -220, -242, -252, -259, -266, -266, -276, -288, -295, -305, -320, -322, -320, -322, -322])
('ECG', 1747930703698399782, [-307, -300, -303, -303, -293, -291, -295, -293, -288, -291, -291, -286, -288, -295, -295, -293, -298, -300, -300, -303, -300, -303, -305, -305, -303, -300, -300, -303, -303, -300, -298, -298, -295, -295, -295, -298, -295, -293, -293, -293, -293, -293, -293, -291, -293, -300, -303, -288, -269, -261, -254, -247, -249, -271, -293, -295, -288, -286, -291, -303, -356, -385, -109, 509, 996, 715, -390, -1004, -487, -172, -378, -346, -235])
('ECG', 1747930704260053052, [-293, -295, -235, -240, -247, -218, -203, -203, -191, -177, -172, -167, -164, -167, -177, -186, -198, -218, -242, -259, -269, -274, -283, -293, -303, -310, -322, -329, -329, -334, -341, -337, -324, -322, -317, -312, -312, -310, -310, -305, -298, -295, -295, -293, -295, -298, -298, -295, -298, -303, -307, -307, -305, -303, -305, -307, -305, -303, -305, -303, -303, -303, -303, -300, -295, -293, -293, -293, -293, -295, -293, -293, -288])
('ECG', 1747930704821706326, [-286, -286, -288, -281, -278, -281, -278, -274, -278, -281, -276, -276, -278, -276, -281, -291, -288, -271, -257, -254, -252, -244, -257, -283, -293, -278, -276, -281, -283, -322, -385, -283, 172, 749, 892, 184, -739, -686, -186, -254, -407, -295, -266, -320, -288, -252, -244, -230, -218, -208, -196, -189, -191, -194, -189, -174, -164, -174, -184, -191, -210, -235, -252, -259, -264, -281, -307, -329, -341, -349, -337, -334, -351])
('ECG', 1747930705383339252, [-341, -322, -332, -341, -332, -324, -327, -312, -293, -291, -295, -283, -281, -291, -298, -286, -281, -298, -298, -276, -283, -298, -293, -286, -293, -300, -293, -281, -286, -293, -291, -288, -286, -278, -276, -286, -288, -281, -278, -276, -269, -276, -286, -269, -264, -281, -281, -259, -261, -281, -281, -269, -266, -259, -259, -286, -298, -269, -259, -266, -247, -225, -225, -242, -274, -286, -281, -288, -283, -269, -298, -371, -327])
('ECG', 1747930705944982352, [60, 671, 1020, 499, -649, -943, -346, -215, -400, -291, -223, -298, -274, -225, -237, -235, -220, -218, -206, -184, -174, -169, -150, -143, -157, -164, -174, -203, -218, -220, -240, -257, -259, -271, -288, -293, -298, -320, -329, -334, -351, -344, -310, -315, -329, -315, -305, -310, -305, -298, -312, -312, -281, -266, -278, -276, -283, -307, -293, -271, -291, -307, -303, -298, -295, -300, -300, -293, -300, -307, -303, -298, -295])
('ECG', 1747930706506625450, [-283, -286, -303, -310, -295, -278, -283, -286, -276, -274, -281, -283, -295, -298, -274, -266, -283, -278, -266, -274, -269, -269, -288, -288, -266, -247, -249, -247, -232, -247, -281, -291, -276, -271, -276, -274, -300, -363, -291, 121, 683, 865, 194, -780, -783, -237, -240, -383, -274, -240, -291, -259, -223, -230, -220, -198, -194, -189, -174, -160, -147, -140, -138, -135, -140, -157, -164, -174, -203, -235, -230, -223, -266])
('ECG', 1747930707068258378, [-322, -312, -298, -329, -351, -341, -337, -341, -346, -358, -354, -329, -324, -337, -315, -286, -298, -315, -303, -291, -298, -298, -283, -286, -305, -303, -291, -300, -312, -303, -291, -293, -298, -300, -310, -315, -303, -295, -298, -293, -291, -288, -274, -266, -295, -315, -298, -295, -310, -300, -281, -278, -281, -286, -295, -288, -269, -266, -283, -288, -286, -291, -291, -276, -266, -276, -274, -249, -247, -261, -264, -257, -261])
('ECG', 1747930707629911648, [-293, -307, -291, -283, -295, -320, -354, -184, 356, 887, 788, -155, -897, -509, -104, -315, -349, -206, -259, -303, -237, -220, -247, -223, -167, -147, -169, -160, -123, -121, -130, -113, -106, -121, -130, -143, -150, -155, -174, -203, -220, -240, -271, -291, -295, -315, -327, -327, -339, -346, -334, -337, -339, -332, -322, -315, -307, -303, -295, -286, -286, -288, -291, -291, -288, -293, -295, -293, -300, -303, -291, -291, -300])
('ECG', 1747930708191539490, [-305, -305, -303, -300, -298, -300, -298, -291, -291, -293, -291, -286, -288, -298, -300, -291, -274, -276, -281, -281, -283, -276, -278, -288, -281, -271, -278, -283, -286, -288, -278, -261, -254, -252, -237, -237, -264, -283, -288, -283, -271, -271, -293, -344, -346, -50, 555, 1001, 649, -465, -974, -407, -138, -363, -317, -206, -261, -266, -213, -213, -213, -191, -186, -181, -164, -157, -150, -130, -118, -118, -123, -128, -138])
('ECG', 1747930708753187676, [-152, -167, -186, -208, -225, -247, -274, -295, -315, -332, -339, -339, -341, -341, -334, -339, -344, -339, -329, -327, -322, -312, -305, -307, -305, -291, -281, -283, -288, -286, -288, -293, -293, -291, -293, -300, -303, -298, -295, -300, -303, -300, -298, -303, -298, -291, -298, -305, -300, -286, -276, -281, -288, -286, -283, -288, -293, -288, -281, -281, -283, -276, -276, -286, -283, -281, -288, -300, -293, -266, -257, -261, -252])
('ECG', 1747930709314825688, [-240, -261, -286, -291, -286, -283, -283, -291, -339, -385, -203, 346, 897, 851, -53, -863, -577, -152, -322, -390, -257, -278, -315, -259, -244, -257, -230, -213, -210, -194, -177, -169, -160, -152, -150, -143, -133, -140, -155, -167, -186, -210, -232, -249, -269, -291, -310, -329, -344, -349, -356, -363, -356, -351, -351, -344, -327, -327, -327, -317, -315, -312, -300, -295, -300, -305, -303, -293, -288, -293, -295, -295, -298])
('ECG', 1747930709876453528, [-298, -300, -300, -298, -300, -305, -305, -298, -295, -295, -293, -293, -298, -293, -288, -286, -286, -291, -291, -281, -281, -283, -283, -286, -286, -281, -276, -276, -281, -281, -278, -276, -271, -271, -276, -276, -276, -276, -274, -271, -276, -281, -278, -278, -286, -276, -259, -257, -257, -244, -244, -261, -276, -278, -274, -276, -281, -303, -358, -322, 36, 630, 970, 509, -504, -790, -295, -198, -404, -332, -254, -312, -300])
('ECG', 1747930710438086456, [-249, -254, -249, -230, -220, -210, -191, -177, -167, -155, -147, -145, -147, -147, -145, -160, -184, -201, -215, -237, -259, -276, -288, -307, -327, -332, -339, -346, -346, -349, -349, -339, -329, -327, -329, -322, -310, -303, -305, -300, -291, -291, -293, -293, -291, -291, -293, -295, -295, -298, -298, -298, -300, -303, -303, -303, -298, -295, -298, -298, -300, -300, -300, -295, -291, -291, -288, -288, -288, -293, -295, -291, -291])
('ECG', 1747930710999739726, [-295, -288, -276, -278, -288, -288, -286, -283, -286, -286, -278, -281, -291, -288, -276, -271, -281, -291, -295, -288, -271, -254, -254, -252, -244, -257, -278, -288, -286, -283, -283, -291, -324, -373, -249, 225, 788, 899, 152, -788, -696, -189, -271, -402, -278, -264, -310, -261, -240, -257, -240, -218, -218, -203, -179, -169, -160, -147, -143, -143, -143, -145, -162, -177, -186, -206, -227, -240, -259, -288, -307, -322, -332])
('ECG', 1747930711561367568, [-337, -344, -356, -354, -346, -351, -351, -334, -322, -317, -310, -305, -305, -303, -303, -298, -293, -293, -293, -288, -293, -298, -298, -295, -300, -303, -298, -300, -303, -305, -303, -303, -300, -303, -303, -300, -295, -295, -295, -291, -293, -298, -295, -288, -291, -288, -283, -288, -291, -288, -286, -278, -276, -281, -281, -278, -281, -283, -278, -278, -281, -286, -288, -288, -291, -281, -261, -254, -259, -249, -244, -266, -286])
('ECG', 1747930712123015754, [-286, -276, -278, -281, -295, -346, -337, -12, 584, 962, 560, -451, -826, -334, -172, -383, -332, -242, -298, -291, -235, -232, -237, -218, -206, -196, -177, -164, -162, -152, -138, -133, -135, -138, -147, -157, -174, -191, -208, -225, -247, -274, -293, -305, -315, -334, -346, -344, -346, -351, -346, -339, -339, -334, -324, -315, -310, -307, -303, -295, -295, -300, -298, -295, -298, -293, -291, -293, -295, -298, -298, -295, -291])
('ECG', 1747930712684653766, [-298, -300, -293, -298, -300, -293, -295, -300, -293, -291, -286, -288, -293, -288, -283, -291, -291, -278, -276, -286, -286, -283, -286, -278, -274, -274, -271, -269, -274, -276, -276, -274, -278, -286, -278, -261, -257, -254, -244, -237, -252, -276, -281, -276, -281, -288, -295, -344, -332, 7, 606, 940, 453, -557, -822, -303, -189, -383, -310, -235, -288, -274, -242, -257, -244, -220, -223, -196, -145, -145, -157, -133, -123])
('ECG', 1747930713246281606, [-143, -147, -143, -150, -164, -177, -191, -201, -215, -237, -271, -307, -344, -344, -317, -320, -349, -363, -356, -344, -334, -332, -337, -334, -322, -303, -293, -307, -320, -305, -293, -295, -293, -288, -293, -298, -300, -298, -300, -310, -307, -293, -300, -324, -324, -300, -278, -274, -283, -310, -320, -293, -269, -278, -288, -271, -269, -288, -293, -276, -274, -288, -295, -278, -257, -264, -278, -276, -281, -291, -286, -271, -257])
('ECG', 1747930713807914534, [-249, -249, -242, -237, -257, -276, -274, -286, -295, -286, -295, -344, -223, 264, 831, 853, -43, -953, -700, -181, -283, -356, -225, -230, -264, -220, -208, -218, -198, -179, -177, -162, -145, -145, -143, -123, -109, -109, -113, -121, -130, -143, -160, -184, -198, -213, -242, -269, -281, -293, -312, -324, -329, -334, -334, -324, -317, -322, -315, -300, -293, -300, -298, -293, -293, -291, -283, -286, -293, -286, -283, -288, -288])
('ECG', 1747930714369537288, [-281, -278, -286, -291, -291, -291, -291, -286, -288, -291, -286, -276, -274, -276, -278, -283, -281, -274, -274, -281, -278, -274, -269, -264, -264, -264, -264, -269, -269, -269, -276, -286, -288, -274, -249, -232, -237, -235, -225, -242, -271, -276, -269, -269, -271, -274, -298, -339, -172, 354, 890, 836, -53, -843, -560, -135, -303, -375, -247, -259, -291, -244, -232, -242, -220, -203, -198, -181, -162, -155, -150, -140, -123])
('ECG', 1747930714931190560, [-106, -113, -145, -177, -191, -186, -186, -191, -198, -223, -264, -293, -312, -332, -341, -346, -349, -349, -344, -341, -337, -332, -322, -310, -298, -293, -293, -291, -293, -305, -305, -298, -298, -291, -274, -276, -295, -300, -293, -293, -300, -303, -305, -303, -288, -281, -293, -300, -286, -281, -293, -305, -310, -303, -283, -271, -269, -259, -264, -278, -278, -276, -278, -278, -278, -278, -281, -283, -278, -259, -257, -257, -232])
('ECG', 1747930715492823486, [-223, -257, -283, -278, -271, -276, -276, -295, -351, -315, 46, 649, 967, 438, -630, -894, -322, -186, -378, -293, -215, -278, -259, -206, -218, -220, -191, -177, -172, -160, -152, -150, -138, -121, -111, -113, -123, -135, -147, -172, -194, -208, -220, -240, -266, -291, -307, -317, -327, -337, -337, -337, -339, -337, -327, -324, -322, -320, -305, -291, -288, -293, -291, -288, -291, -293, -298, -303, -298, -286, -278, -281, -291])
('ECG', 1747930716054451326, [-298, -298, -295, -298, -298, -295, -295, -295, -288, -281, -286, -293, -291, -291, -291, -288, -283, -274, -264, -269, -278, -276, -274, -276, -278, -283, -291, -286, -264, -247, -247, -242, -235, -252, -278, -286, -274, -266, -271, -293, -344, -358, -72, 535, 987, 698, -324, -892, -429, -143, -363, -349, -227, -276, -293, -235, -225, -235, -215, -196, -189, -177, -167, -157, -145, -133, -126, -126, -128, -135, -147, -164, -184])
('ECG', 1747930716616079166, [-201, -218, -242, -274, -295, -305, -322, -339, -344, -346, -346, -346, -344, -337, -327, -322, -317, -310, -303, -303, -303, -298, -291, -293, -293, -291, -293, -295, -293, -283, -281, -288, -291, -288, -288, -291, -291, -288, -286, -288, -283, -281, -288, -288, -281, -281, -278, -276, -278, -278, -274, -274, -276, -269, -266, -269, -271, -269, -269, -269, -271, -278, -283, -266, -244, -244, -249, -235, -232, -254, -276, -271, -259])
('ECG', 1747930717177707006, [-261, -274, -295, -344, -283, 118, 715, 955, 354, -637, -754, -230, -201, -383, -286, -235, -293, -274, -230, -232, -223, -201, -194, -184, -164, -157, -147, -138, -133, -133, -133, -133, -138, -150, -174, -194, -203, -220, -247, -271, -293, -307, -322, -337, -344, -341, -349, -351, -339, -324, -320, -315, -307, -303, -300, -300, -295, -298, -295, -286, -283, -286, -286, -281, -281, -283, -283, -286, -288, -286, -288, -288, -283])
('ECG', 1747930717739334848, [-288, -293, -288, -283, -281, -281, -283, -283, -278, -278, -278, -276, -276, -271, -271, -274, -271, -271, -271, -271, -269, -266, -269, -269, -269, -271, -271, -271, -276, -281, -278, -259, -244, -252, -244, -227, -237, -269, -281, -274, -271, -276, -278, -305, -346, -240, 206, 761, 885, 172, -739, -676, -186, -254, -392, -264, -237, -300, -264, -220, -230, -225, -201, -194, -189, -179, -167, -155, -145, -140, -135, -130, -138])
('ECG', 1747930718300962688, [-155, -169, -186, -206, -218, -225, -247, -276, -295, -307, -320, -329, -339, -341, -339, -339, -339, -329, -317, -312, -310, -300, -295, -293, -288, -286, -293, -295, -288, -283, -286, -288, -288, -288, -286, -288, -293, -295, -295, -288, -283, -283, -291, -291, -288, -281, -281, -283, -281, -278, -281, -276, -274, -274, -271, -266, -261, -266, -274, -274, -269, -264, -261, -261, -264, -266, -261, -257, -261, -266, -264, -264, -266])
('ECG', 1747930718862621046, [-266, -252, -237, -235, -235, -227, -235, -257, -274, -269, -254, -249, -264, -293, -332, -240, 186, 751, 887, 150, -809, -744, -201, -235, -361, -235, -215, -276, -235, -201, -218, -210, -189, -184, -177, -157, -143, -140, -135, -126, -116, -116, -130, -150, -164, -177, -194, -206, -210, -223, -249, -271, -288, -303, -320, -329, -329, -327, -332, -327, -303, -288, -295, -295, -286, -286, -291, -293, -293, -281, -274, -278, -288])
('ECG', 1747930719424248886, [-286, -276, -281, -293, -298, -298, -298, -291, -281, -286, -298, -291, -286, -293, -293, -288, -291, -288, -278, -276, -276, -274, -278, -281, -281, -281, -281, -278, -269, -269, -278, -278, -269, -269, -274, -278, -278, -271, -259, -259, -271, -276, -264, -247, -247, -247, -237, -242, -259, -269, -266, -259, -261, -269, -291, -337, -278, 106, 679, 919, 344, -630, -754, -237, -210, -390, -293, -235, -286, -257, -223, -232, -225])
('ECG', 1747930719985856382, [-203, -194, -186, -177, -164, -145, -130, -130, -130, -121, -126, -145, -157, -172, -191, -201, -213, -240, -264, -276, -286, -303, -324, -332, -327, -324, -324, -320, -312, -307, -305, -295, -288, -286, -291, -291, -283, -276, -269, -269, -269, -269, -266, -271, -278, -276, -274, -278, -283, -286, -281, -274, -276, -281, -278, -274, -278, -274, -266, -269, -269, -271, -276, -269, -259, -261, -266, -264, -264, -264, -259, -252, -254])
('ECG', 1747930720547479136, [-259, -259, -252, -252, -257, -257, -257, -261, -249, -232, -235, -235, -215, -218, -244, -261, -261, -254, -244, -247, -269, -324, -317, 7, 620, 987, 499, -577, -892, -324, -162, -354, -274, -196, -259, -244, -196, -203, -203, -179, -172, -167, -152, -138, -126, -118, -118, -116, -109, -113, -130, -147, -162, -177, -194, -210, -227, -247, -266, -286, -298, -305, -312, -320, -322, -320, -320, -312, -305, -300, -295, -288, -286])
('ECG', 1747930721109101890, [-286, -286, -278, -269, -269, -276, -276, -274, -274, -276, -276, -271, -276, -281, -278, -283, -286, -278, -274, -276, -278, -276, -274, -274, -278, -276, -269, -274, -274, -264, -269, -276, -269, -261, -261, -264, -269, -266, -259, -259, -261, -261, -259, -266, -278, -276, -259, -244, -237, -227, -220, -232, -257, -271, -264, -257, -259, -266, -288, -337, -257, 179, 773, 974, 329, -645, -705, -201, -227, -397, -283, -235, -291])
('ECG', 1747930721670729730, [-264, -235, -247, -223, -189, -191, -191, -169, -145, -133, -130, -128, -118, -116, -121, -128, -143, -162, -179, -194, -210, -225, -249, -276, -293, -305, -315, -315, -322, -329, -322, -315, -315, -307, -298, -288, -281, -278, -283, -283, -274, -266, -264, -259, -264, -274, -271, -269, -271, -274, -271, -269, -271, -276, -271, -271, -271, -266, -269, -274, -271, -271, -271, -266, -261, -261, -259, -257, -257, -259, -259, -257, -249])
('ECG', 1747930722232357570, [-249, -254, -249, -240, -242, -242, -249, -259, -247, -218, -218, -230, -213, -196, -218, -232, -227, -247, -257, -235, -237, -283, -322, -174, 317, 863, 875, 4, -860, -615, -133, -259, -332, -206, -223, -261, -210, -194, -203, -179, -155, -157, -155, -140, -133, -121, -113, -118, -116, -106, -109, -123, -135, -150, -177, -208, -213, -223, -261, -291, -298, -300, -307, -317, -322, -320, -315, -310, -305, -298, -291, -288, -286])
('ECG', 1747930722793970152, [-283, -283, -276, -274, -276, -274, -271, -274, -276, -276, -276, -276, -278, -283, -286, -286, -288, -281, -276, -286, -288, -286, -281, -278, -283, -286, -278, -276, -276, -276, -276, -276, -276, -274, -276, -281, -278, -274, -269, -271, -276, -274, -269, -276, -288, -276, -252, -249, -259, -244, -232, -259, -286, -286, -278, -276, -278, -288, -329, -337, -67, 499, 919, 625, -346, -853, -414, -162, -361, -346, -247, -295, -295])
('ECG', 1747930723355592906, [-242, -244, -254, -227, -208, -201, -189, -164, -155, -157, -150, -133, -130, -140, -143, -147, -160, -177, -194, -208, -230, -257, -281, -300, -320, -334, -341, -344, -349, -349, -337, -332, -332, -327, -320, -310, -295, -286, -286, -288, -288, -291, -293, -293, -293, -278, -252, -247, -266, -271, -269, -276, -283, -281, -274, -274, -276, -276, -274, -274, -276, -281, -278, -271, -266, -261, -257, -259, -266, -264, -264, -266, -264])
('ECG', 1747930723917215660, [-254, -254, -261, -261, -257, -254, -257, -264, -261, -247, -227, -225, -227, -218, -210, -237, -266, -271, -266, -259, -252, -257, -293, -324, -116, 453, 967, 790, -247, -984, -555, -152, -324, -322, -198, -240, -259, -208, -203, -206, -184, -167, -152, -130, -123, -123, -111, -99, -99, -101, -101, -111, -126, -140, -162, -184, -198, -223, -249, -269, -286, -303, -317, -324, -334, -337, -339, -337, -329, -317, -312, -305, -295])
('ECG', 1747930724478838412, [-293, -295, -293, -286, -276, -274, -274, -271, -271, -274, -271, -271, -274, -278, -281, -283, -283, -278, -278, -283, -281, -278, -293, -305, -281, -242, -252, -274, -271, -264, -269, -266, -264, -264, -261, -259, -264, -261, -257, -259, -257, -254, -257, -261, -264, -257, -235, -223, -232, -225, -206, -225, -257, -257, -247, -242, -242, -254, -300, -334, -123, 431, 940, 802, -150, -863, -502, -128, -307, -341, -218, -252, -283])
('ECG', 1747930725040461168, [-232, -220, -225, -201, -181, -179, -164, -143, -133, -130, -118, -104, -101, -104, -111, -121, -135, -145, -160, -186, -215, -235, -257, -283, -305, -317, -327, -334, -339, -337, -324, -324, -329, -322, -310, -300, -295, -288, -278, -274, -269, -266, -274, -276, -266, -261, -266, -264, -266, -274, -269, -264, -274, -278, -269, -269, -271, -266, -266, -266, -264, -266, -269, -264, -264, -266, -264, -259, -257, -259, -259, -257, -254])
('ECG', 1747930725602083922, [-254, -257, -257, -252, -252, -249, -252, -259, -257, -249, -240, -227, -225, -223, -213, -223, -244, -259, -257, -244, -244, -254, -283, -337, -266, 164, 780, 996, 283, -778, -814, -235, -223, -366, -247, -210, -266, -232, -198, -206, -196, -177, -172, -162, -140, -128, -121, -111, -101, -97, -99, -104, -111, -123, -145, -167, -181, -201, -223, -247, -274, -293, -303, -317, -329, -332, -329, -334, -332, -322, -315, -312, -300])
('ECG', 1747930726163691416, [-293, -291, -286, -283, -276, -271, -271, -271, -269, -264, -264, -269, -264, -261, -264, -266, -266, -269, -271, -271, -266, -266, -271, -271, -269, -266, -261, -261, -264, -261, -261, -261, -257, -257, -261, -261, -252, -252, -254, -252, -249, -249, -254, -254, -247, -247, -249, -249, -247, -247, -247, -247, -247, -247, -252, -259, -249, -232, -223, -220, -213, -210, -225, -249, -264, -257, -249, -249, -252, -288, -341, -223, 252])
('ECG', 1747930726725319256, [836, 967, 218, -729, -657, -167, -247, -375, -254, -237, -281, -240, -215, -225, -206, -184, -179, -167, -150, -138, -130, -118, -104, -99, -99, -99, -104, -116, -133, -152, -167, -184, -210, -237, -259, -278, -295, -305, -312, -317, -322, -320, -315, -310, -305, -298, -293, -291, -286, -278, -276, -276, -269, -264, -264, -264, -261, -261, -261, -261, -264, -264, -264, -266, -266, -269, -269, -269, -269, -264, -261, -266, -264])
('ECG', 1747930727286947096, [-259, -261, -266, -261, -259, -257, -254, -254, -254, -254, -254, -252, -249, -249, -249, -247, -252, -249, -242, -240, -244, -247, -247, -242, -240, -247, -252, -254, -259, -240, -215, -225, -244, -242, -240, -244, -242, -247, -264, -276, -252, -213, -208, -220, -210, -201, -213, -240, -254, -257, -252, -249, -254, -269, -317, -312, -16, 557, 967, 654, -329, -802, -346, -138, -354, -322, -220, -271, -276, -225, -220, -220, -196])
('ECG', 1747930727848544420, [-181, -172, -157, -145, -133, -118, -113, -111, -104, -94, -99, -113, -126, -140, -160, -179, -194, -213, -244, -266, -276, -288, -300, -310, -312, -317, -317, -310, -305, -300, -295, -291, -286, -281, -276, -271, -264, -261, -266, -269, -264, -259, -264, -269, -266, -266, -266, -266, -269, -274, -274, -274, -274, -271, -261, -259, -266, -269, -266, -264, -261, -266, -264, -261, -264, -266, -259, -254, -259, -264, -259, -254, -254])
('ECG', 1747930728410172260, [-254, -252, -254, -257, -254, -247, -249, -254, -252, -249, -247, -252, -252, -247, -247, -244, -242, -247, -252, -254, -252, -257, -257, -240, -223, -220, -220, -213, -215, -237, -257, -259, -249, -242, -247, -269, -320, -291, 53, 649, 996, 543, -492, -817, -293, -155, -361, -291, -208, -269, -259, -208, -210, -208, -184, -179, -174, -157, -143, -133, -118, -106, -101, -97, -99, -109, -118, -135, -152, -162, -177, -201, -227])
('ECG', 1747930728971789928, [-254, -276, -288, -303, -317, -324, -324, -324, -322, -322, -315, -303, -300, -298, -286, -278, -283, -281, -274, -271, -276, -276, -274, -269, -266, -274, -276, -274, -278, -281, -281, -276, -271, -274, -276, -278, -281, -281, -274, -266, -264, -266, -264, -261, -264, -266, -264, -261, -259, -259, -259, -259, -259, -259, -254, -252, -254, -252, -249, -249, -247, -244, -244, -249, -247, -244, -244, -247, -247, -244, -244, -247, -249])
('ECG', 1747930729533397422, [-237, -218, -213, -215, -206, -203, -225, -244, -247, -247, -244, -244, -254, -295, -324, -123, 417, 931, 841, -82, -853, -531, -126, -298, -346, -220, -244, -276, -223, -208, -220, -198, -179, -172, -157, -143, -135, -123, -109, -101, -99, -97, -97, -106, -123, -143, -155, -172, -194, -215, -242, -269, -288, -303, -315, -320, -322, -327, -324, -320, -320, -315, -303, -298, -295, -291, -286, -283, -281, -276, -276, -276, -274])
('ECG', 1747930730095004918, [-271, -271, -271, -274, -276, -276, -274, -276, -276, -274, -276, -278, -276, -276, -278, -274, -269, -271, -271, -266, -266, -269, -269, -269, -264, -259, -259, -264, -261, -257, -254, -257, -259, -261, -257, -252, -252, -249, -249, -252, -252, -252, -252, -249, -244, -247, -252, -249, -252, -249, -230, -213, -218, -215, -206, -220, -244, -259, -259, -254, -257, -261, -281, -320, -201, 266, 829, 914, 147, -744, -632, -160, -249])
('ECG', 1747930730656622584, [-371, -249, -235, -281, -249, -220, -220, -206, -194, -184, -167, -155, -143, -128, -118, -113, -101, -92, -94, -104, -116, -130, -147, -164, -184, -210, -242, -266, -278, -295, -315, -324, -329, -332, -329, -324, -320, -315, -310, -305, -298, -291, -291, -288, -278, -271, -278, -278, -274, -274, -278, -276, -274, -276, -278, -276, -276, -278, -281, -283, -283, -281, -278, -276, -274, -269, -271, -274, -274, -274, -276, -271, -264])
('ECG', 1747930731218219908, [-264, -266, -266, -264, -264, -269, -264, -257, -261, -264, -257, -257, -261, -261, -254, -254, -261, -259, -249, -247, -249, -252, -252, -254, -264, -266, -252, -232, -227, -227, -220, -218, -235, -257, -259, -249, -252, -261, -274, -322, -322, -41, 531, 943, 640, -346, -846, -388, -138, -344, -317, -210, -264, -274, -220, -218, -223, -201, -189, -179, -162, -150, -140, -126, -111, -101, -99, -104, -111, -121, -128, -145, -167])
('ECG', 1747930731779842662, [-181, -196, -223, -252, -269, -286, -305, -327, -337, -337, -332, -324, -320, -317, -310, -305, -300, -298, -293, -283, -281, -278, -276, -274, -276, -281, -286, -281, -274, -278, -283, -278, -278, -286, -288, -281, -278, -281, -283, -281, -281, -278, -276, -274, -274, -274, -271, -271, -264, -261, -264, -266, -264, -261, -257, -261, -266, -261, -254, -252, -252, -257, -257, -249, -249, -254, -254, -254, -254, -252, -235, -220, -225])
('ECG', 1747930732341445070, [-215, -201, -218, -247, -257, -247, -242, -247, -252, -278, -329, -220, 247, 819, 931, 162, -783, -683, -167, -227, -344, -223, -213, -261, -220, -194, -201, -186, -167, -162, -152, -140, -121, -101, -97, -92, -82, -82, -89, -94, -104, -121, -140, -157, -179, -208, -237, -259, -278, -295, -310, -320, -324, -320, -320, -317, -310, -305, -300, -295, -288, -278, -276, -276, -274, -271, -269, -264, -259, -261, -264, -264, -266])
('ECG', 1747930732903057652, [-269, -266, -264, -266, -269, -271, -269, -266, -266, -269, -266, -264, -266, -264, -257, -257, -259, -259, -257, -252, -252, -254, -249, -244, -247, -247, -244, -247, -247, -244, -244, -244, -244, -242, -240, -242, -242, -242, -240, -237, -237, -244, -249, -244, -230, -218, -213, -208, -203, -218, -244, -254, -240, -230, -237, -249, -278, -320, -181, 305, 851, 899, 113, -751, -599, -135, -247, -351, -223, -218, -266, -223, -198])
('ECG', 1747930733464670232, [-208, -194, -172, -167, -155, -138, -126, -111, -97, -94, -84, -72, -77, -89, -99, -111, -128, -147, -169, -196, -225, -252, -271, -286, -303, -312, -315, -315, -317, -320, -317, -303, -291, -288, -286, -281, -274, -274, -274, -269, -271, -269, -264, -261, -269, -266, -261, -261, -261, -261, -264, -266, -266, -269, -266, -264, -266, -266, -264, -266, -269, -264, -259, -259, -261, -259, -257, -259, -259, -257, -254, -254, -257])
('ECG', 1747930734026272642, [-254, -252, -257, -257, -254, -252, -249, -249, -252, -247, -247, -247, -244, -244, -247, -257, -261, -247, -230, -225, -225, -218, -220, -240, -254, -261, -261, -254, -257, -271, -315, -327, -77, 485, 926, 679, -283, -843, -417, -130, -334, -329, -218, -266, -278, -227, -223, -223, -198, -189, -184, -167, -155, -147, -138, -126, -116, -106, -106, -111, -118, -133, -150, -164, -181, -206, -232, -264, -288, -300, -310, -322, -332])
('ECG', 1747930734587895394, [-337, -341, -339, -329, -322, -315, -310, -300, -298, -298, -291, -283, -281, -283, -283, -283, -276, -274, -276, -281, -286, -281, -278, -281, -283, -278, -281, -286, -286, -278, -271, -271, -271, -271, -274, -271, -264, -266, -269, -266, -264, -264, -266, -264, -259, -261, -259, -259, -259, -257, -254, -257, -257, -249, -247, -257, -261, -259, -259, -261, -254, -240, -225, -225, -225, -215, -218, -242, -261, -264, -257, -249, -252])
('ECG', 1747930735149487632, [-271, -322, -320, -26, 545, 938, 586, -426, -894, -404, -152, -329, -291, -201, -252, -244, -194, -194, -194, -172, -160, -155, -138, -121, -113, -106, -94, -84, -84, -87, -92, -101, -113, -133, -150, -169, -191, -215, -237, -261, -281, -295, -305, -312, -317, -317, -315, -307, -305, -298, -288, -283, -274, -271, -274, -271, -266, -266, -264, -264, -269, -266, -264, -269, -269, -269, -269, -266, -266, -266, -266, -269, -271])
('ECG', 1747930735711090040, [-269, -269, -269, -264, -261, -261, -261, -259, -261, -261, -261, -257, -249, -252, -254, -247, -242, -247, -249, -244, -242, -244, -244, -242, -242, -244, -244, -244, -249, -249, -235, -218, -215, -215, -206, -215, -244, -259, -252, -242, -247, -254, -281, -329, -257, 155, 737, 953, 332, -640, -725, -208, -194, -363, -264, -215, -274, -244, -206, -213, -206, -181, -172, -160, -145, -133, -123, -111, -101, -94, -89, -89, -97])
('ECG', 1747930736272733139, [-109, -123, -133, -152, -174, -198, -225, -254, -271, -286, -303, -317, -322, -317, -315, -317, -312, -300, -295, -293, -286, -278, -278, -276, -274, -271, -266, -266, -266, -266, -269, -266, -261, -264, -266, -266, -266, -264, -264, -269, -266, -264, -266, -266, -261, -261, -261, -261, -259, -259, -259, -259, -257, -254, -254, -254, -252, -249, -249, -249, -247, -249, -247, -244, -244, -247, -244, -240, -242, -244, -249, -254, -247])
('ECG', 1747930736834315202, [-223, -210, -213, -206, -201, -220, -242, -247, -244, -242, -237, -247, -288, -322, -155, 346, 863, 824, -14, -788, -543, -126, -264, -341, -220, -227, -264, -218, -201, -208, -189, -167, -160, -147, -133, -126, -116, -99, -87, -84, -84, -89, -97, -106, -121, -135, -155, -177, -201, -227, -254, -274, -291, -303, -312, -317, -315, -310, -310, -303, -295, -288, -283, -278, -274, -271, -266, -261, -266, -271, -266, -257, -254])
('ECG', 1747930737395912524, [-259, -261, -261, -261, -261, -264, -264, -261, -259, -264, -266, -264, -261, -264, -257, -257, -259, -254, -252, -249, -254, -257, -252, -244, -247, -252, -247, -242, -242, -249, -247, -237, -237, -242, -240, -240, -247, -252, -247, -235, -218, -210, -213, -206, -203, -225, -247, -247, -240, -242, -244, -259, -310, -300, 7, 591, 962, 543, -497, -885, -351, -140, -327, -274, -196, -249, -237, -186, -186, -186, -164, -152, -145])
('ECG', 1747930737957509848, [-130, -118, -109, -101, -89, -80, -75, -72, -75, -87, -109, -121, -130, -150, -181, -208, -225, -244, -266, -281, -291, -300, -305, -307, -303, -295, -288, -281, -274, -269, -266, -261, -259, -261, -259, -254, -254, -252, -252, -252, -257, -261, -257, -254, -259, -261, -259, -259, -264, -264, -261, -259, -257, -252, -257, -257, -254, -257, -257, -247, -242, -247, -247, -247, -247, -247, -244, -244, -244, -244, -242, -240, -244])
('ECG', 1747930738519107170, [-257, -252, -230, -218, -220, -210, -198, -213, -242, -249, -240, -242, -244, -247, -271, -329, -259, 162, 759, 979, 332, -679, -759, -218, -196, -354, -249, -206, -261, -235, -198, -206, -198, -172, -160, -155, -140, -128, -121, -104, -92, -87, -89, -92, -94, -101, -113, -133, -150, -169, -196, -225, -247, -269, -288, -303, -312, -317, -315, -312, -310, -307, -300, -288, -278, -276, -276, -271, -266, -264, -264, -261, -259])
('ECG', 1747930739080704492, [-259, -261, -259, -259, -264, -266, -259, -259, -266, -266, -259, -257, -264, -264, -259, -257, -261, -259, -257, -257, -259, -252, -249, -254, -254, -249, -247, -247, -247, -242, -242, -244, -242, -240, -240, -242, -244, -242, -235, -240, -249, -249, -232, -218, -210, -208, -201, -208, -235, -252, -249, -244, -242, -242, -261, -315, -288, 58, 640, 967, 509, -485, -783, -283, -150, -344, -283, -206, -259, -249, -201, -206, -203])
('ECG', 1747930739642317074, [-177, -167, -162, -145, -135, -128, -116, -97, -84, -87, -92, -94, -99, -111, -128, -147, -167, -186, -213, -237, -257, -276, -293, -303, -307, -310, -310, -310, -300, -293, -288, -278, -271, -274, -271, -261, -259, -261, -259, -252, -252, -257, -257, -254, -254, -257, -257, -257, -259, -261, -259, -257, -261, -261, -259, -257, -259, -259, -259, -254, -252, -252, -252, -249, -252, -249, -247, -247, -247, -247, -242, -242, -247])
('ECG', 1747930740203909310, [-242, -240, -242, -242, -237, -237, -237, -237, -232, -230, -232, -240, -244, -247, -237, -225, -215, -208, -198, -201, -225, -244, -244, -237, -235, -235, -244, -281, -317, -157, 339, 863, 846, 12, -783, -548, -123, -264, -346, -223, -230, -266, -220, -201, -210, -191, -174, -169, -160, -143, -133, -121, -109, -99, -89, -84, -87, -99, -113, -123, -135, -160, -179, -194, -220, -247, -264, -276, -288, -298, -305, -303, -300])
('ECG', 1747930740765501546, [-300, -291, -278, -278, -278, -269, -259, -257, -259, -254, -249, -247, -249, -254, -254, -254, -254, -249, -247, -252, -252, -252, -257, -261, -257, -257, -254, -249, -249, -249, -252, -254, -249, -242, -247, -252, -247, -244, -244, -242, -240, -235, -235, -240, -242, -244, -242, -237, -230, -232, -237, -242, -242, -230, -210, -206, -215, -210, -196, -208, -232, -242, -240, -237, -240, -244, -271, -317, -208, 252, 822, 914, 109])
('ECG', 1747930741327093782, [-841, -705, -177, -237, -332, -206, -206, -247, -198, -174, -186, -169, -150, -143, -130, -116, -111, -101, -84, -72, -70, -75, -77, -84, -99, -113, -128, -147, -164, -181, -208, -235, -252, -269, -286, -298, -303, -303, -298, -295, -291, -286, -276, -266, -266, -266, -259, -254, -261, -259, -252, -252, -259, -257, -252, -254, -259, -261, -259, -257, -261, -261, -264, -266, -264, -257, -257, -261, -261, -257, -254, -254, -257])
('ECG', 1747930741888716536, [-257, -252, -247, -247, -244, -240, -244, -244, -240, -237, -237, -240, -237, -237, -240, -242, -247, -247, -230, -213, -210, -203, -196, -208, -232, -247, -247, -240, -237, -244, -274, -324, -242, 198, 797, 979, 274, -720, -727, -191, -206, -354, -242, -213, -266, -232, -196, -203, -194, -172, -169, -160, -140, -128, -118, -106, -97, -89, -84, -84, -94, -106, -118, -133, -150, -172, -196, -223, -247, -269, -283, -295, -303])
('ECG', 1747930742450308772, [-310, -315, -312, -305, -300, -295, -291, -286, -278, -269, -264, -266, -264, -259, -259, -259, -257, -257, -259, -259, -259, -259, -261, -264, -261, -264, -266, -266, -261, -261, -261, -257, -254, -247, -247, -257, -264, -259, -254, -252, -249, -244, -247, -244, -240, -240, -244, -242, -237, -242, -240, -232, -237, -242, -242, -247, -240, -220, -210, -215, -203, -196, -218, -242, -244, -240, -235, -235, -247, -288, -320, -126, 407])
('ECG', 1747930743011901008, [911, 805, -92, -807, -494, -116, -281, -337, -220, -242, -266, -210, -198, -210, -186, -167, -167, -152, -135, -121, -113, -104, -92, -84, -84, -89, -99, -111, -128, -138, -150, -174, -201, -223, -252, -271, -286, -298, -305, -310, -312, -310, -305, -298, -295, -293, -293, -283, -269, -259, -257, -257, -259, -257, -254, -254, -257, -257, -254, -259, -264, -261, -259, -261, -264, -261, -259, -264, -266, -261, -261, -264, -259])
('ECG', 1747930743573493244, [-254, -254, -259, -254, -249, -252, -249, -244, -242, -240, -237, -237, -240, -237, -230, -232, -240, -242, -240, -237, -244, -242, -218, -201, -201, -196, -191, -210, -232, -240, -240, -237, -235, -242, -276, -317, -191, 266, 817, 899, 118, -788, -649, -145, -225, -337, -210, -203, -254, -215, -191, -198, -181, -162, -155, -140, -126, -118, -111, -97, -92, -87, -80, -77, -89, -99, -113, -135, -152, -167, -189, -215, -242])
('ECG', 1747930744135085480, [-264, -278, -291, -307, -315, -310, -307, -305, -295, -286, -283, -276, -271, -269, -264, -259, -261, -259, -257, -259, -264, -259, -254, -259, -271, -271, -264, -261, -261, -266, -269, -264, -259, -264, -264, -261, -264, -259, -252, -252, -252, -249, -252, -247, -244, -252, -249, -240, -237, -244, -244, -242, -237, -242, -249, -249, -240, -227, -218, -215, -208, -203, -220, -244, -252, -244, -240, -244, -257, -293, -337, -162, 375])
('ECG', 1747930744696677716, [902, 814, -126, -921, -582, -130, -274, -322, -198, -215, -242, -196, -189, -196, -174, -162, -160, -138, -113, -111, -104, -94, -89, -84, -82, -89, -101, -111, -126, -143, -157, -177, -203, -230, -252, -271, -286, -295, -303, -312, -312, -305, -298, -295, -283, -274, -274, -269, -266, -266, -264, -261, -259, -259, -259, -257, -252, -254, -261, -259, -254, -259, -261, -259, -257, -259, -261, -257, -254, -257, -259, -257, -257])
('ECG', 1747930745258269952, [-254, -254, -252, -249, -249, -249, -247, -242, -242, -244, -242, -240, -242, -242, -240, -240, -242, -252, -252, -237, -220, -215, -206, -189, -198, -227, -244, -244, -240, -240, -240, -252, -303, -303, -26, 550, 979, 688, -303, -826, -380, -123, -329, -315, -208, -249, -264, -215, -206, -206, -181, -164, -162, -150, -133, -123, -116, -99, -89, -89, -89, -89, -94, -106, -126, -143, -160, -186, -215, -240, -261, -283, -303])
('ECG', 1747930745819862188, [-315, -327, -332, -320, -300, -291, -293, -295, -286, -276, -278, -274, -261, -261, -261, -254, -249, -257, -259, -254, -252, -254, -259, -259, -259, -261, -261, -257, -257, -259, -259, -261, -261, -254, -249, -252, -249, -247, -247, -247, -249, -254, -247, -244, -244, -240, -235, -237, -240, -240, -240, -237, -237, -240, -242, -242, -244, -242, -235, -225, -210, -210, -208, -194, -203, -232, -244, -242, -237, -237, -237, -264, -322])
('ECG', 1747930746381454424, [-266, 128, 712, 965, 400, -596, -766, -237, -162, -337, -249, -196, -257, -230, -189, -203, -196, -164, -157, -155, -138, -123, -113, -104, -92, -84, -80, -80, -89, -104, -116, -121, -138, -167, -189, -203, -230, -257, -271, -286, -298, -303, -310, -307, -295, -293, -291, -278, -269, -266, -261, -257, -254, -257, -259, -249, -242, -247, -252, -252, -247, -252, -257, -257, -259, -261, -259, -259, -257, -252, -249, -254, -257])
('ECG', 1747930746943046660, [-249, -240, -242, -249, -242, -240, -247, -247, -244, -244, -237, -227, -230, -235, -237, -237, -240, -242, -242, -247, -237, -210, -201, -210, -206, -196, -213, -237, -247, -240, -232, -237, -249, -291, -322, -111, 448, 955, 790, -223, -950, -521, -113, -298, -310, -184, -218, -240, -189, -184, -191, -167, -147, -145, -130, -113, -99, -89, -84, -82, -82, -82, -87, -92, -101, -118, -135, -150, -172, -201, -227, -252, -269])
('ECG', 1747930747504638896, [-281, -298, -305, -298, -295, -293, -293, -283, -278, -293, -303, -269, -225, -225, -249, -247, -242, -249, -249, -247, -252, -254, -254, -257, -254, -257, -259, -264, -264, -254, -247, -249, -254, -252, -254, -254, -252, -252, -249, -247, -249, -249, -244, -244, -247, -244, -237, -232, -235, -235, -230, -230, -240, -244, -242, -232, -213, -203, -203, -194, -189, -215, -237, -235, -232, -232, -232, -247, -295, -300, -29, 550, 996])
('ECG', 1747930748066231132, [725, -266, -822, -385, -111, -320, -312, -203, -244, -252, -203, -203, -203, -177, -162, -160, -140, -123, -116, -106, -92, -84, -82, -82, -84, -97, -109, -121, -135, -157, -184, -208, -235, -259, -278, -291, -305, -312, -310, -310, -310, -305, -298, -293, -283, -276, -271, -264, -261, -264, -261, -259, -254, -252, -257, -254, -254, -259, -259, -254, -257, -261, -259, -257, -257, -259, -259, -257, -259, -257, -249, -244, -249])
('ECG', 1747930748627828454, [-254, -252, -244, -242, -242, -242, -240, -237, -237, -235, -235, -237, -237, -235, -235, -237, -242, -244, -237, -220, -208, -208, -203, -201, -215, -240, -252, -249, -237, -232, -244, -286, -317, -150, 356, 875, 829, -29, -797, -538, -126, -271, -341, -218, -230, -264, -218, -198, -203, -184, -169, -164, -147, -130, -126, -118, -101, -92, -89, -89, -87, -92, -106, -123, -133, -152, -179, -206, -232, -252, -264, -281, -295])
('ECG', 1747930749189425776, [-307, -315, -317, -315, -300, -286, -286, -286, -276, -266, -261, -259, -259, -254, -247, -244, -247, -249, -249, -252, -244, -237, -247, -252, -252, -257, -254, -242, -244, -254, -252, -244, -247, -244, -240, -247, -254, -244, -232, -242, -244, -235, -230, -237, -240, -237, -235, -227, -225, -235, -242, -232, -225, -232, -240, -225, -210, -210, -208, -191, -201, -230, -237, -235, -235, -232, -232, -264, -320, -225, 237, 839, 994])
('ECG', 1747930749751023098, [220, -805, -727, -135, -194, -354, -223, -194, -249, -215, -184, -191, -174, -147, -140, -135, -121, -109, -109, -97, -77, -80, -89, -89, -99, -121, -135, -147, -157, -177, -208, -230, -242, -266, -288, -298, -303, -310, -317, -320, -307, -295, -288, -288, -281, -274, -269, -271, -266, -259, -257, -261, -259, -257, -259, -259, -257, -259, -261, -264, -266, -266, -266, -269, -271, -266, -259, -261, -264, -264, -264, -264, -264])
('ECG', 1747930750312620420, [-264, -261, -257, -254, -254, -257, -264, -271, -257, -230, -223, -227, -218, -220, -242, -257, -257, -252, -244, -247, -269, -324, -337, -58, 567, 1040, 659, -511, -1035, -419, -116, -339, -276, -162, -237, -244, -179, -179, -184, -160, -147, -138, -121, -109, -101, -94, -89, -80, -77, -87, -99, -111, -121, -138, -162, -184, -203, -230, -259, -281, -291, -303, -315, -320, -315, -317, -317, -305, -295, -293, -293, -288, -281])
('ECG', 1747930750874217742, [-276, -271, -266, -264, -264, -264, -264, -266, -264, -261, -264, -264, -261, -264, -266, -271, -266, -259, -252, -249, -254, -257, -254, -254, -254, -252, -249, -252, -252, -247, -242, -244, -249, -247, -242, -247, -257, -261, -252, -237, -227, -227, -215, -206, -220, -242, -252, -247, -240, -240, -252, -291, -334, -189, 322, 909, 957, 97, -826, -628, -118, -249, -368, -225, -220, -274, -227, -198, -213, -196, -174, -167, -152])
('ECG', 1747930751435784548, [-135, -128, -121, -109, -97, -92, -89, -89, -92, -104, -118, -138, -155, -172, -203, -230, -244, -264, -286, -295, -303, -315, -315, -305, -300, -295, -291, -288, -283, -276, -271, -271, -269, -264, -259, -259, -259, -259, -259, -259, -259, -259, -257, -257, -257, -259, -259, -257, -254, -254, -254, -252, -247, -249, -247, -247, -247, -244, -240, -237, -242, -242, -237, -240, -242, -237, -237, -237, -240, -247, -252, -244, -223])
('ECG', 1747930751997381870, [-213, -213, -203, -189, -198, -227, -242, -232, -225, -227, -232, -257, -310, -257, 140, 739, 1008, 436, -584, -756, -220, -169, -361, -266, -208, -274, -249, -196, -201, -201, -179, -164, -160, -152, -138, -123, -111, -106, -106, -97, -94, -101, -116, -130, -143, -160, -186, -210, -223, -237, -271, -288, -288, -305, -315, -305, -303, -307, -305, -300, -295, -286, -276, -269, -266, -264, -264, -261, -259, -254, -247, -242, -244])
('ECG', 1747930752558969020, [-252, -259, -259, -259, -264, -261, -259, -261, -261, -244, -230, -244, -257, -247, -237, -242, -247, -242, -235, -237, -237, -232, -235, -237, -235, -230, -235, -240, -242, -240, -220, -203, -203, -198, -196, -215, -237, -249, -242, -230, -237, -244, -274, -327, -206, 291, 890, 984, 113, -911, -739, -145, -230, -349, -201, -196, -247, -194, -172, -186, -167, -143, -130, -116, -111, -109, -99, -80, -67, -65, -75, -82, -89])
('ECG', 1747930753120561256, [-104, -116, -135, -157, -177, -198, -227, -249, -259, -278, -298, -300, -307, -315, -307, -300, -293, -286, -286, -286, -281, -271, -261, -261, -264, -261, -257, -261, -264, -264, -264, -264, -269, -274, -269, -259, -259, -261, -261, -261, -264, -264, -259, -259, -257, -249, -252, -257, -247, -235, -240, -247, -240, -237, -247, -252, -235, -218, -218, -213, -196, -198, -225, -244, -242, -235, -232, -232, -254, -312, -293, 53, 691])
('ECG', 1747930753682153492, [1105, 649, -497, -904, -310, -111, -354, -283, -177, -244, -244, -181, -179, -181, -162, -150, -140, -128, -121, -113, -99, -82, -72, -75, -75, -80, -92, -106, -123, -145, -172, -196, -223, -252, -274, -288, -298, -305, -305, -307, -307, -307, -300, -293, -283, -276, -274, -271, -269, -269, -269, -264, -259, -254, -252, -254, -257, -257, -259, -261, -257, -252, -254, -259, -261, -259, -259, -264, -261, -254, -249, -244, -237])
('ECG', 1747930754243740640, [-237, -242, -242, -237, -237, -235, -232, -235, -232, -227, -227, -232, -240, -242, -230, -210, -208, -203, -189, -196, -223, -237, -237, -232, -232, -232, -249, -300, -264, 99, 708, 1047, 555, -502, -797, -252, -133, -354, -274, -189, -259, -247, -194, -198, -196, -177, -174, -164, -133, -116, -113, -106, -97, -92, -92, -97, -101, -116, -135, -143, -152, -177, -206, -230, -257, -276, -288, -300, -312, -317, -317, -315, -310])
('ECG', 1747930754805307446, [-310, -307, -293, -283, -286, -281, -266, -261, -269, -271, -264, -264, -269, -266, -261, -264, -269, -266, -266, -271, -266, -261, -261, -261, -261, -261, -266, -266, -261, -254, -252, -254, -252, -244, -242, -247, -244, -237, -242, -244, -244, -244, -244, -235, -232, -242, -247, -242, -227, -215, -223, -215, -194, -201, -235, -252, -244, -237, -230, -232, -264, -317, -223, 225, 831, 1006, 242, -802, -756, -157, -191, -354, -223])
('ECG', 1747930755366899682, [-194, -254, -215, -177, -189, -179, -160, -147, -133, -121, -116, -104, -92, -87, -87, -87, -89, -97, -113, -133, -143, -160, -181, -198, -215, -242, -261, -271, -283, -298, -307, -307, -303, -298, -291, -281, -278, -276, -271, -269, -269, -266, -259, -254, -261, -261, -257, -261, -266, -264, -259, -261, -264, -261, -259, -261, -261, -261, -259, -257, -252, -252, -252, -247, -247, -249, -244, -242, -247, -247, -240, -242, -242])
('ECG', 1747930755928471572, [-240, -237, -237, -240, -244, -249, -244, -225, -208, -206, -203, -198, -213, -235, -237, -225, -220, -230, -242, -281, -320, -126, 438, 1001, 909, -101, -923, -535, -84, -283, -332, -186, -215, -247, -194, -184, -194, -167, -147, -143, -130, -121, -116, -106, -94, -89, -89, -92, -99, -111, -126, -138, -155, -172, -191, -220, -244, -259, -271, -281, -298, -312, -312, -305, -305, -300, -286, -278, -281, -276, -274, -271, -266])
('ECG', 1747930756490068894, [-264, -264, -264, -259, -259, -261, -261, -257, -249, -249, -254, -257, -257, -254, -257, -261, -259, -254, -257, -254, -242, -240, -247, -247, -242, -242, -240, -240, -240, -240, -235, -232, -230, -232, -232, -230, -227, -230, -237, -247, -247, -230, -215, -210, -203, -191, -203, -232, -244, -235, -225, -227, -237, -264, -312, -210, 261, 873, 1033, 295, -696, -664, -138, -206, -371, -242, -210, -264, -225, -194, -203, -189, -169])
('ECG', 1747930757051645872, [-160, -145, -133, -126, -121, -111, -99, -84, -84, -97, -109, -121, -138, -152, -167, -184, -208, -235, -247, -259, -286, -300, -300, -305, -310, -303, -295, -291, -286, -283, -281, -274, -264, -264, -271, -269, -257, -254, -252, -242, -247, -259, -264, -261, -257, -247, -244, -249, -252, -257, -257, -247, -247, -254, -249, -237, -244, -252, -249, -249, -249, -244, -240, -240, -242, -237, -230, -232, -235, -232, -235, -244, -247])
('ECG', 1747930757613233020, [-242, -240, -232, -220, -215, -210, -196, -194, -218, -237, -240, -232, -223, -223, -232, -269, -293, -106, 429, 960, 880, -65, -868, -528, -77, -269, -339, -186, -203, -247, -196, -179, -189, -172, -155, -147, -135, -121, -113, -109, -94, -82, -77, -80, -89, -106, -118, -138, -157, -164, -177, -198, -220, -237, -254, -271, -286, -293, -298, -298, -291, -278, -269, -269, -271, -264, -261, -266, -264, -257, -249, -244, -242])
('ECG', 1747930758174799826, [-242, -247, -252, -254, -247, -242, -252, -257, -252, -247, -242, -242, -252, -254, -247, -247, -242, -240, -240, -237, -237, -244, -242, -232, -230, -230, -232, -235, -235, -230, -227, -240, -254, -244, -220, -208, -210, -201, -191, -203, -225, -235, -235, -232, -232, -232, -254, -305, -240, 191, 807, 1001, 247, -805, -778, -174, -186, -334, -203, -177, -237, -196, -160, -177, -167, -143, -135, -128, -116, -111, -106, -97, -87])
('ECG', 1747930758736392062, [-89, -97, -97, -99, -116, -140, -152, -167, -184, -203, -225, -247, -261, -271, -286, -298, -303, -300, -295, -291, -291, -286, -274, -271, -269, -264, -259, -259, -259, -259, -254, -257, -264, -259, -252, -254, -257, -257, -254, -254, -257, -254, -252, -254, -249, -242, -244, -249, -247, -244, -244, -244, -242, -235, -235, -237, -235, -232, -235, -235, -230, -230, -237, -249, -247, -230, -218, -215, -206, -189, -191, -218, -235])
('ECG', 1747930759297963952, [-232, -230, -232, -227, -240, -293, -264, 97, 712, 1050, 552, -497, -788, -242, -126, -351, -271, -184, -249, -235, -184, -186, -184, -162, -155, -150, -135, -121, -111, -101, -94, -89, -92, -97, -104, -118, -138, -150, -160, -181, -206, -223, -242, -266, -278, -283, -300, -312, -307, -295, -291, -286, -281, -278, -276, -271, -264, -266, -271, -264, -249, -247, -254, -252, -247, -249, -252, -249, -252, -252, -249, -252, -252])
('ECG', 1747930759859530756, [-249, -244, -247, -247, -242, -242, -244, -242, -240, -237, -242, -247, -244, -237, -225, -218, -218, -223, -223, -218, -220, -242, -254, -240, -218, -210, -206, -186, -177, -203, -220, -210, -215, -235, -230, -218, -257, -295, -82, 487, 994, 829, -145, -848, -451, -63, -276, -315, -169, -206, -242, -194, -186, -179, -138, -130, -143, -128, -111, -106, -94, -87, -87, -84, -84, -94, -111, -128, -143, -147, -155, -177, -206])
('ECG', 1747930760421107734, [-225, -242, -259, -276, -286, -291, -288, -286, -283, -276, -269, -274, -274, -261, -257, -257, -249, -249, -247, -242, -244, -247, -244, -249, -252, -244, -249, -259, -254, -247, -247, -240, -237, -249, -252, -237, -237, -242, -237, -237, -235, -235, -240, -237, -232, -240, -232, -218, -215, -225, -230, -237, -244, -232, -210, -208, -203, -179, -184, -215, -232, -227, -227, -232, -232, -249, -303, -237, 194, 819, 1004, 220, -841])
('ECG', 1747930760982694882, [-795, -181, -186, -322, -191, -167, -220, -179, -147, -160, -150, -128, -121, -113, -104, -94, -84, -75, -70, -67, -72, -82, -97, -109, -121, -143, -160, -172, -194, -218, -230, -240, -264, -278, -286, -291, -291, -286, -281, -278, -278, -271, -264, -266, -271, -264, -257, -254, -254, -254, -254, -257, -257, -254, -252, -254, -257, -259, -257, -254, -252, -254, -261, -254, -247, -242, -237, -242, -247, -242, -237, -240, -240])
('ECG', 1747930761544261688, [-237, -232, -230, -235, -235, -232, -240, -247, -244, -235, -215, -206, -201, -189, -186, -206, -225, -232, -227, -223, -225, -244, -291, -252, 116, 742, 1069, 523, -548, -788, -218, -130, -358, -261, -174, -247, -237, -184, -186, -184, -160, -150, -145, -128, -116, -109, -97, -89, -92, -94, -101, -113, -126, -135, -150, -169, -191, -208, -227, -247, -266, -276, -291, -305, -310, -305, -298, -293, -288, -286, -278, -274, -274])
('ECG', 1747930762105853924, [-269, -257, -254, -257, -257, -254, -254, -257, -254, -247, -249, -257, -254, -252, -249, -244, -247, -252, -249, -247, -249, -247, -244, -244, -240, -237, -240, -237, -227, -227, -230, -227, -227, -230, -232, -232, -235, -240, -240, -220, -201, -198, -194, -181, -196, -227, -232, -220, -218, -225, -230, -254, -286, -147, 334, 892, 919, 70, -800, -586, -97, -227, -332, -194, -198, -252, -196, -164, -174, -155, -130, -130, -126])
('ECG', 1747930762667415642, [-111, -101, -99, -94, -82, -72, -80, -94, -106, -116, -133, -155, -169, -179, -196, -220, -240, -249, -261, -276, -288, -291, -288, -283, -278, -278, -276, -269, -257, -254, -257, -257, -249, -247, -247, -247, -247, -249, -249, -247, -249, -249, -247, -247, -247, -247, -247, -247, -242, -244, -249, -247, -240, -232, -235, -240, -237, -230, -223, -218, -220, -225, -220, -215, -218, -220, -220, -227, -235, -215, -194, -194, -191])
('ECG', 1747930763228977360, [-174, -184, -213, -220, -215, -215, -215, -213, -235, -286, -208, 225, 831, 996, 230, -780, -720, -135, -164, -320, -181, -147, -218, -189, -152, -160, -152, -128, -116, -104, -89, -87, -87, -80, -72, -70, -72, -77, -92, -116, -130, -138, -155, -172, -184, -203, -225, -240, -252, -264, -274, -278, -278, -271, -261, -261, -261, -257, -249, -244, -242, -242, -244, -247, -244, -237, -237, -240, -242, -244, -240, -237, -244])
('ECG', 1747930763790559422, [-244, -237, -240, -249, -249, -242, -242, -240, -235, -230, -232, -235, -235, -230, -220, -215, -220, -225, -227, -232, -230, -218, -206, -201, -196, -186, -189, -210, -223, -223, -215, -215, -220, -247, -295, -230, 196, 824, 1023, 244, -834, -800, -174, -169, -310, -177, -152, -213, -172, -140, -157, -145, -123, -123, -109, -89, -89, -87, -75, -70, -70, -70, -77, -92, -109, -128, -143, -155, -169, -191, -213, -232, -252])
('ECG', 1747930764352131314, [-266, -278, -291, -298, -295, -286, -281, -283, -278, -264, -257, -261, -259, -247, -247, -252, -249, -247, -252, -254, -252, -249, -252, -252, -244, -242, -252, -259, -257, -254, -252, -244, -240, -242, -244, -244, -244, -235, -227, -235, -235, -225, -230, -232, -223, -225, -240, -244, -227, -208, -206, -203, -186, -184, -208, -230, -225, -218, -218, -220, -227, -266, -281, -26, 569, 1050, 785, -242, -843, -383, -70, -298, -298])
('ECG', 1747930764913693032, [-174, -225, -237, -179, -177, -179, -150, -135, -138, -126, -101, -87, -84, -82, -75, -75, -87, -94, -104, -123, -143, -155, -164, -184, -208, -227, -244, -264, -278, -286, -291, -295, -293, -281, -269, -264, -261, -257, -252, -252, -252, -247, -244, -244, -242, -242, -244, -242, -242, -244, -247, -249, -247, -244, -244, -247, -249, -247, -242, -242, -240, -232, -232, -237, -235, -232, -235, -237, -232, -230, -230, -232, -227])
('ECG', 1747930765475285268, [-220, -218, -223, -220, -220, -235, -230, -206, -201, -203, -181, -172, -201, -227, -230, -220, -208, -210, -225, -269, -276, 4, 618, 1062, 722, -337, -860, -346, -67, -300, -276, -152, -213, -230, -167, -167, -174, -145, -130, -130, -116, -99, -89, -80, -75, -72, -70, -80, -89, -104, -121, -138, -152, -167, -181, -198, -220, -235, -244, -257, -276, -288, -286, -283, -278, -271, -257, -252, -257, -254, -240, -240, -247])
('ECG', 1747930766036846986, [-244, -242, -237, -232, -237, -242, -237, -232, -235, -242, -240, -237, -242, -242, -237, -235, -232, -227, -230, -230, -230, -227, -220, -218, -227, -235, -225, -215, -215, -215, -213, -213, -213, -213, -215, -220, -223, -213, -196, -186, -189, -179, -172, -194, -213, -220, -215, -210, -208, -215, -257, -288, -72, 502, 1011, 778, -300, -967, -460, -75, -278, -271, -140, -189, -208, -152, -147, -155, -130, -118, -116, -99, -87])
('ECG', 1747930766598423962, [-82, -75, -65, -67, -72, -77, -82, -97, -116, -133, -143, -160, -174, -189, -210, -235, -249, -259, -271, -278, -281, -278, -276, -274, -269, -261, -259, -259, -252, -247, -244, -242, -240, -235, -237, -244, -244, -237, -237, -244, -244, -240, -237, -242, -244, -244, -244, -240, -237, -237, -232, -232, -235, -235, -237, -237, -227, -215, -223, -227, -218, -215, -218, -218, -218, -218, -223, -223, -223, -227, -218, -196, -191])
('ECG', 1747930767160000940, [-191, -181, -181, -203, -218, -213, -208, -208, -213, -240, -288, -203, 240, 858, 1071, 375, -664, -705, -133, -157, -349, -218, -172, -242, -210, -162, -172, -167, -147, -143, -130, -113, -104, -94, -80, -70, -75, -75, -72, -84, -106, -128, -147, -157, -164, -189, -218, -237, -244, -247, -261, -291, -295, -283, -283, -281, -261, -249, -254, -257, -252, -240, -232, -240, -247, -237, -230, -235, -235, -232, -232, -230, -227])
('ECG', 1747930767721588088, [-235, -237, -232, -230, -235, -237, -237, -235, -223, -225, -235, -227, -218, -223, -227, -223, -210, -208, -218, -223, -218, -213, -215, -215, -210, -215, -220, -223, -235, -242, -227, -213, -218, -210, -191, -198, -206, -201, -215, -220, -206, -208, -220, -244, -266, -77, 472, 989, 834, -140, -846, -453, -63, -266, -310, -177, -210, -244, -191, -186, -198, -172, -140, -126, -126, -126, -123, -118, -109, -99, -94, -84, -84])
('ECG', 1747930768283154894, [-109, -135, -145, -157, -172, -186, -208, -237, -257, -266, -276, -288, -293, -295, -298, -293, -288, -291, -278, -249, -242, -259, -254, -235, -235, -244, -244, -240, -240, -237, -237, -232, -227, -240, -247, -235, -223, -232, -249, -249, -232, -223, -232, -230, -215, -215, -232, -237, -235, -223, -208, -210, -213, -208, -215, -225, -215, -210, -215, -213, -220, -237, -230, -198, -184, -189, -179, -169, -191, -218, -225, -218, -213])
('ECG', 1747930768844721698, [-210, -218, -264, -300, -92, 482, 996, 766, -317, -989, -485, -94, -278, -252, -123, -184, -208, -152, -143, -145, -133, -123, -109, -97, -92, -82, -67, -63, -63, -65, -70, -77, -92, -109, -126, -140, -157, -174, -196, -215, -232, -249, -261, -274, -286, -283, -281, -286, -281, -271, -269, -269, -264, -257, -252, -247, -244, -242, -240, -244, -247, -240, -232, -240, -244, -242, -240, -242, -242, -242, -240, -240, -240])
('ECG', 1747930769406288502, [-237, -235, -235, -232, -232, -235, -232, -227, -230, -232, -230, -227, -225, -223, -220, -223, -225, -227, -235, -242, -230, -201, -191, -191, -181, -181, -206, -223, -223, -230, -232, -223, -230, -274, -223, 157, 773, 1069, 489, -574, -776, -210, -130, -324, -223, -162, -230, -208, -164, -174, -174, -152, -143, -123, -97, -92, -94, -80, -65, -70, -77, -84, -92, -92, -106, -135, -150, -155, -181, -215, -237, -269, -298])
('ECG', 1747930769967870566, [-288, -269, -281, -291, -283, -293, -293, -271, -269, -281, -259, -227, -232, -247, -235, -230, -242, -244, -237, -240, -247, -244, -237, -237, -240, -237, -232, -237, -244, -240, -223, -220, -232, -235, -232, -237, -237, -225, -225, -232, -215, -203, -220, -223, -218, -225, -230, -227, -227, -227, -223, -208, -196, -198, -194, -181, -194, -218, -225, -223, -225, -227, -227, -244, -293, -215, 210, 800, 979, 271, -725, -712, -147])
('ECG', 1747930770529452628, [-167, -334, -220, -191, -254, -210, -164, -177, -169, -138, -126, -121, -111, -104, -99, -82, -67, -67, -67, -75, -92, -101, -109, -128, -150, -164, -181, -206, -230, -247, -264, -276, -281, -283, -291, -291, -281, -271, -269, -264, -264, -264, -254, -240, -244, -249, -247, -244, -242, -235, -237, -242, -242, -249, -261, -257, -244, -244, -249, -244, -242, -242, -240, -235, -235, -232, -230, -232, -230, -223, -225, -227, -225])
('ECG', 1747930771091024520, [-225, -227, -230, -232, -232, -220, -203, -198, -196, -181, -186, -215, -230, -218, -213, -218, -223, -242, -291, -247, 130, 754, 1030, 358, -754, -858, -215, -147, -334, -215, -152, -213, -189, -150, -155, -138, -121, -128, -130, -111, -84, -72, -82, -82, -80, -89, -89, -87, -116, -140, -133, -140, -179, -208, -227, -249, -261, -266, -274, -295, -307, -300, -298, -300, -298, -276, -254, -254, -269, -261, -252, -257, -259])
('ECG', 1747930771652586236, [-254, -249, -247, -240, -242, -247, -242, -235, -240, -244, -244, -244, -244, -242, -244, -244, -235, -230, -230, -230, -225, -220, -218, -223, -223, -218, -215, -215, -223, -235, -240, -230, -208, -191, -194, -196, -179, -179, -210, -225, -208, -201, -213, -220, -235, -274, -225, 167, 795, 1059, 431, -611, -761, -198, -128, -317, -227, -160, -206, -184, -157, -174, -155, -118, -116, -118, -104, -97, -99, -94, -70, -55, -60])
('ECG', 1747930772214178474, [-53, -55, -84, -106, -113, -133, -162, -189, -213, -220, -230, -254, -266, -269, -286, -295, -291, -288, -281, -259, -237, -237, -252, -244, -235, -249, -259, -237, -220, -240, -257, -242, -227, -232, -244, -244, -232, -223, -227, -242, -242, -232, -237, -244, -235, -220, -218, -220, -223, -230, -225, -210, -218, -230, -220, -198, -201, -208, -198, -201, -215, -220, -213, -198, -181, -164, -152, -160, -181, -196, -201, -203, -201])
('ECG', 1747930772775750364, [-194, -198, -242, -240, 60, 657, 1042, 615, -451, -846, -278, -65, -295, -242, -135, -194, -198, -140, -133, -140, -128, -111, -99, -84, -77, -77, -67, -50, -41, -41, -53, -75, -87, -89, -109, -133, -145, -162, -184, -208, -230, -247, -259, -274, -283, -283, -276, -269, -261, -257, -259, -261, -257, -237, -235, -247, -247, -244, -232, -220, -218, -220, -220, -230, -235, -232, -237, -249, -252, -240, -230, -232, -235])
('ECG', 1747930773337332428, [-237, -240, -240, -235, -230, -225, -220, -218, -220, -227, -232, -237, -237, -220, -210, -218, -218, -196, -186, -194, -194, -196, -203, -208, -215, -208, -196, -203, -227, -269, -295, -97, 470, 1006, 812, -254, -945, -458, -65, -276, -286, -140, -169, -203, -160, -145, -150, -133, -111, -97, -94, -97, -82, -58, -48, -53, -48, -48, -60, -70, -89, -111, -138, -157, -169, -191, -213, -223, -247, -276, -286, -286, -291])
('ECG', 1747930773898914490, [-286, -271, -261, -269, -269, -261, -257, -249, -247, -235, -223, -232, -235, -223, -230, -242, -230, -218, -225, -232, -237, -235, -227, -230, -235, -227, -225, -225, -225, -232, -230, -218, -220, -230, -227, -223, -220, -213, -210, -215, -210, -203, -203, -213, -220, -203, -184, -186, -186, -177, -172, -181, -194, -203, -198, -194, -203, -225, -271, -232, 123, 725, 1025, 480, -548, -749, -184, -94, -315, -232, -155, -220, -201])
('ECG', 1747930774460481294, [-152, -172, -169, -128, -123, -135, -121, -104, -70, -38, -46, -55, -43, -55, -70, -70, -87, -126, -155, -164, -160, -172, -215, -247, -261, -269, -274, -286, -305, -298, -257, -242, -259, -257, -240, -237, -240, -240, -232, -225, -227, -235, -232, -225, -225, -230, -237, -240, -230, -227, -227, -223, -220, -232, -242, -242, -230, -223, -237, -240, -225, -220, -218, -206, -206, -218, -215, -215, -220, -215, -215, -223, -225])
('ECG', 1747930775022048100, [-215, -189, -179, -186, -181, -179, -198, -210, -203, -196, -201, -203, -215, -264, -283, -38, 545, 1035, 783, -286, -928, -429, -58, -259, -261, -147, -194, -203, -147, -145, -147, -121, -113, -116, -92, -67, -67, -72, -63, -53, -50, -48, -58, -77, -92, -109, -128, -147, -169, -194, -215, -232, -252, -261, -261, -271, -286, -288, -286, -286, -271, -254, -254, -254, -235, -230, -249, -252, -242, -242, -247, -249, -244])
('ECG', 1747930775583614904, [-235, -230, -242, -247, -242, -242, -249, -252, -252, -240, -227, -232, -240, -235, -227, -223, -225, -223, -227, -230, -223, -215, -213, -213, -215, -220, -225, -230, -220, -198, -181, -184, -184, -172, -184, -210, -218, -208, -210, -215, -213, -237, -286, -152, 356, 950, 1001, 128, -809, -603, -80, -213, -327, -179, -179, -227, -179, -157, -172, -152, -135, -135, -118, -97, -89, -84, -75, -67, -65, -63, -72, -92, -106])
('ECG', 1747930776145202054, [-121, -138, -150, -172, -203, -227, -242, -261, -281, -288, -295, -300, -283, -266, -276, -278, -266, -261, -257, -249, -254, -259, -244, -232, -235, -242, -242, -242, -247, -249, -249, -244, -244, -249, -249, -240, -235, -237, -240, -242, -244, -237, -230, -232, -237, -232, -220, -225, -232, -227, -220, -220, -215, -208, -213, -218, -218, -232, -237, -208, -184, -186, -186, -172, -184, -215, -225, -215, -203, -203, -210, -227, -266])
('ECG', 1747930776706763772, [-218, 164, 771, 1033, 431, -582, -712, -162, -128, -332, -230, -164, -230, -208, -155, -157, -157, -130, -109, -106, -106, -104, -99, -89, -67, -46, -53, -70, -77, -87, -104, -118, -138, -155, -177, -206, -232, -252, -264, -274, -278, -281, -281, -274, -264, -261, -264, -259, -252, -249, -249, -247, -244, -249, -252, -247, -242, -240, -242, -249, -249, -235, -235, -249, -249, -240, -244, -249, -247, -249, -254, -249, -235])
('ECG', 1747930777268345834, [-235, -240, -235, -225, -230, -235, -235, -232, -227, -230, -232, -232, -225, -218, -218, -215, -218, -220, -223, -223, -210, -198, -201, -194, -181, -191, -210, -210, -203, -206, -218, -225, -249, -286, -157, 337, 914, 955, 87, -824, -596, -70, -201, -315, -172, -169, -223, -179, -155, -164, -143, -121, -116, -97, -82, -80, -77, -72, -63, -58, -63, -70, -80, -99, -113, -118, -135, -160, -174, -189, -213, -237, -252])
('ECG', 1747930777829917726, [-259, -266, -276, -281, -276, -266, -254, -249, -247, -244, -240, -232, -230, -237, -235, -230, -230, -235, -235, -227, -227, -235, -240, -240, -240, -244, -240, -235, -240, -240, -230, -230, -230, -230, -235, -230, -220, -227, -230, -220, -215, -220, -218, -210, -213, -220, -223, -223, -220, -215, -203, -194, -191, -179, -172, -191, -213, -210, -206, -208, -206, -213, -259, -286, -38, 557, 1028, 715, -356, -909, -378, -65, -283])
('ECG', 1747930778391479444, [-266, -150, -194, -201, -150, -147, -150, -135, -126, -116, -104, -89, -72, -60, -63, -63, -60, -65, -77, -89, -111, -135, -157, -162, -162, -189, -225, -240, -247, -266, -281, -286, -288, -286, -278, -276, -271, -257, -249, -249, -249, -247, -242, -240, -235, -235, -237, -237, -235, -230, -237, -240, -225, -220, -232, -237, -232, -237, -237, -235, -235, -230, -220, -220, -223, -220, -220, -218, -208, -208, -213, -215, -213])
('ECG', 1747930778953046248, [-210, -208, -206, -210, -220, -225, -215, -196, -189, -191, -177, -160, -179, -208, -213, -208, -208, -210, -210, -240, -274, -111, 412, 955, 906, 7, -793, -499, -53, -223, -303, -169, -189, -225, -167, -145, -160, -143, -123, -118, -106, -92, -82, -75, -65, -55, -55, -65, -72, -77, -87, -104, -126, -145, -162, -186, -208, -223, -240, -257, -269, -271, -276, -278, -271, -259, -254, -254, -249, -242, -237, -237, -240])
('ECG', 1747930779514613052, [-237, -232, -230, -230, -235, -235, -227, -225, -230, -232, -232, -235, -230, -230, -232, -232, -225, -220, -220, -218, -213, -215, -218, -218, -215, -215, -215, -208, -206, -208, -208, -210, -208, -203, -203, -208, -213, -218, -206, -184, -177, -179, -167, -160, -186, -215, -210, -194, -194, -203, -213, -252, -249, 36, 625, 1020, 625, -395, -805, -281, -65, -293, -252, -143, -203, -213, -160, -152, -152, -126, -116, -118, -106])
('ECG', 1747930780076179856, [-89, -80, -72, -67, -65, -63, -65, -72, -84, -99, -118, -138, -155, -172, -186, -208, -232, -249, -259, -266, -271, -271, -269, -264, -259, -257, -252, -242, -237, -235, -230, -227, -227, -225, -227, -230, -230, -225, -225, -230, -227, -227, -232, -232, -232, -235, -235, -227, -227, -232, -227, -218, -218, -223, -225, -220, -215, -223, -225, -215, -210, -213, -210, -210, -208, -210, -215, -218, -223, -218, -201, -184, -184])
('ECG', 1747930780637756834, [-179, -174, -189, -210, -210, -208, -213, -213, -220, -259, -264, -9, 579, 1025, 669, -407, -902, -354, -65, -278, -244, -135, -189, -196, -157, -162, -152, -130, -121, -94, -70, -80, -92, -84, -82, -77, -65, -72, -94, -111, -126, -150, -169, -169, -169, -194, -230, -252, -254, -259, -278, -298, -307, -303, -286, -264, -259, -261, -254, -247, -237, -237, -249, -240, -213, -218, -230, -218, -203, -198, -215, -247, -247])
('ECG', 1747930781199318552, [-223, -223, -240, -249, -252, -244, -230, -220, -227, -235, -225, -213, -213, -220, -220, -220, -227, -225, -213, -227, -247, -232, -194, -169, -169, -177, -186, -215, -230, -208, -201, -215, -203, -201, -257, -288, -38, 586, 1115, 807, -385, -1020, -446, -89, -300, -257, -116, -172, -203, -160, -143, -121, -101, -104, -75, -55, -89, -84, -31, -24, -48, -36, -14, -38, -84, -99, -99, -121, -145, -147, -155, -191, -218])
('ECG', 1747930781760880270, [-215, -227, -240, -240, -254, -237, -208, -230, -244, -223, -206, -206, -213, -215, -206, -198, -213, -223, -215, -210, -203, -213, -218, -189, -198, -240, -232, -220, -230, -213, -196, -206, -218, -220, -208, -198, -208, -210, -194, -191, -206, -206, -201, -215, -218, -189, -169, -172, -167, -167, -186, -210, -213, -203, -198, -203, -230, -298, -295, 80, 829, 1350, 776, -686, -1142, -366, -123, -349, -223, -121, -201, -181, -128])
('ECG', 1747930782322441988, [-145, -140, -101, -87, -84, -70, -58, -50, -41, -38, -41, -41, -46, -60, -84, -104, -111, -130, -160, -191, -210, -218, -230, -252, -266, -264, -269, -278, -274, -259, -254, -261, -261, -249, -237, -227, -227, -230, -227, -223, -218, -220, -227, -227, -227, -227, -227, -227, -223, -225, -235, -242, -249, -252, -244, -232, -230, -230, -227, -227, -227, -232, -242, -225, -196, -198, -198, -174, -169, -198, -220, -223, -215])
('ECG', 1747930782884003706, [-208, -206, -215, -266, -322, -101, 577, 1295, 1168, -201, -1244, -676, -111, -307, -264, -89, -169, -198, -116, -116, -133, -99, -80, -77, -55, -38, -41, -33, -24, -29, -26, -26, -43, -75, -99, -109, -128, -152, -172, -196, -220, -232, -249, -264, -269, -269, -266, -266, -274, -269, -257, -247, -242, -242, -235, -227, -227, -227, -215, -215, -220, -215, -215, -223, -230, -227, -225, -232, -232, -227, -232, -235, -223])
('ECG', 1747930783445565424, [-220, -235, -240, -230, -227, -230, -230, -225, -215, -220, -235, -230, -210, -191, -186, -181, -174, -191, -218, -223, -218, -215, -210, -210, -242, -300, -249, 191, 950, 1409, 715, -754, -1074, -295, -135, -354, -215, -133, -218, -196, -143, -152, -147, -116, -106, -99, -80, -65, -50, -36, -38, -41, -36, -38, -55, -72, -89, -106, -128, -152, -177, -206, -227, -232, -237, -269, -293, -281, -276, -281, -271, -257, -254])
('ECG', 1747930784007127142, [-249, -240, -242, -244, -240, -230, -225, -225, -218, -213, -223, -230, -223, -223, -232, -232, -227, -227, -232, -237, -237, -237, -235, -227, -215, -208, -220, -232, -220, -225, -232, -218, -206, -210, -215, -215, -210, -210, -210, -201, -189, -179, -164, -160, -191, -218, -215, -203, -203, -210, -223, -252, -291, -130, 443, 1117, 1154, 48, -1059, -712, -75, -225, -315, -150, -157, -198, -145, -135, -147, -116, -99, -94, -72])
('ECG', 1747930784568688860, [-60, -55, -33, -24, -16, -14, -26, -36, -41, -53, -67, -89, -116, -130, -147, -191, -230, -242, -261, -281, -281, -281, -288, -283, -276, -274, -261, -252, -254, -254, -240, -227, -227, -230, -220, -210, -206, -210, -223, -220, -213, -223, -225, -220, -225, -225, -225, -235, -237, -225, -220, -227, -223, -213, -215, -218, -218, -225, -225, -215, -213, -213, -208, -203, -203, -198, -196, -206, -208, -201, -198, -203, -201])
('ECG', 1747930785130250578, [-196, -206, -208, -189, -177, -177, -174, -162, -164, -191, -206, -189, -177, -189, -198, -203, -240, -266, -43, 569, 1202, 1086, -143, -1079, -562, -58, -276, -271, -101, -160, -194, -126, -123, -135, -101, -87, -84, -65, -53, -46, -26, -24, -31, -24, -21, -36, -50, -63, -80, -94, -116, -147, -172, -191, -210, -225, -237, -249, -264, -271, -266, -264, -264, -264, -257, -247, -244, -242, -227, -215, -220, -225, -218])
('ECG', 1747930785691812296, [-215, -220, -218, -215, -218, -218, -223, -227, -223, -220, -230, -235, -232, -227, -227, -227, -225, -225, -227, -225, -223, -225, -218, -203, -208, -218, -213, -208, -215, -215, -210, -201, -198, -206, -206, -194, -194, -208, -206, -194, -194, -203, -206, -196, -189, -179, -167, -155, -150, -167, -196, -210, -203, -198, -203, -203, -208, -259, -252, 82, 756, 1275, 877, -441, -1040, -356, -41, -322, -276, -135, -201, -210, -150])
('ECG', 1747930786253374014, [-150, -145, -118, -109, -99, -75, -60, -58, -48, -33, -33, -33, -21, -24, -50, -70, -80, -94, -116, -143, -172, -206, -232, -244, -254, -274, -291, -293, -288, -278, -276, -274, -261, -254, -266, -259, -232, -235, -244, -232, -218, -218, -220, -225, -225, -237, -244, -230, -230, -235, -232, -237, -237, -225, -225, -227, -225, -235, -232, -220, -218, -223, -215, -213, -215, -227, -235, -220, -206, -208, -208, -201, -206])
('ECG', 1747930786814920472, [-210, -198, -208, -227, -210, -189, -203, -215, -194, -186, -203, -196, -191, -208, -198, -167, -167, -169, -143, -145, -194, -218, -213, -203, -203, -201, -208, -257, -286, -46, 591, 1210, 1091, -128, -1105, -599, -58, -278, -295, -130, -177, -208, -147, -138, -145, -126, -111, -101, -82, -60, -48, -46, -43, -33, -33, -36, -33, -41, -72, -97, -109, -128, -152, -174, -196, -213, -235, -264, -278, -274, -269, -278, -278])
('ECG', 1747930787376487276, [-266, -264, -264, -257, -249, -240, -232, -225, -215, -213, -208, -210, -220, -215, -208, -215, -225, -223, -210, -206, -210, -230, -237, -223, -220, -227, -223, -210, -208, -223, -232, -215, -208, -220, -220, -210, -206, -203, -210, -215, -203, -210, -218, -198, -196, -203, -196, -198, -203, -196, -198, -201, -191, -189, -198, -210, -208, -181, -164, -177, -172, -152, -169, -194, -203, -203, -194, -189, -201, -230, -269, -186, 259])
('ECG', 1747930787938054080, [950, 1292, 548, -783, -921, -172, -118, -341, -198, -143, -227, -189, -133, -147, -143, -111, -89, -77, -75, -70, -43, -31, -38, -29, -12, -16, -26, -38, -65, -77, -87, -126, -157, -169, -201, -242, -259, -259, -269, -278, -281, -283, -271, -264, -271, -261, -244, -240, -244, -240, -232, -227, -225, -225, -225, -223, -220, -215, -215, -227, -230, -223, -230, -237, -232, -230, -235, -232, -227, -223, -223, -227, -230])
('ECG', 1747930788499590368, [-220, -215, -220, -225, -223, -210, -203, -208, -213, -203, -203, -213, -213, -208, -206, -208, -208, -206, -201, -201, -206, -203, -206, -213, -210, -203, -194, -184, -172, -167, -174, -186, -198, -213, -213, -208, -208, -208, -225, -266, -164, 324, 994, 1205, 344, -880, -831, -126, -152, -329, -181, -152, -220, -184, -143, -147, -135, -116, -101, -87, -75, -60, -53, -43, -21, -16, -26, -29, -31, -43, -63, -82, -97])
('ECG', 1747930789061157172, [-123, -157, -186, -210, -235, -252, -266, -274, -281, -281, -278, -286, -278, -259, -259, -259, -244, -242, -244, -227, -223, -237, -235, -227, -232, -235, -232, -230, -227, -230, -237, -240, -237, -240, -240, -237, -242, -244, -240, -237, -235, -225, -225, -225, -220, -218, -223, -225, -223, -220, -223, -220, -218, -213, -213, -215, -210, -208, -210, -208, -210, -215, -210, -206, -206, -203, -208, -218, -215, -206, -191, -181, -177])
('ECG', 1747930789622723976, [-169, -174, -206, -230, -215, -206, -220, -225, -220, -247, -261, -19, 586, 1132, 921, -247, -1033, -494, -50, -286, -291, -138, -191, -218, -160, -157, -162, -126, -109, -111, -92, -67, -55, -50, -43, -29, -24, -26, -31, -46, -60, -77, -101, -118, -138, -167, -189, -210, -242, -266, -274, -278, -291, -293, -283, -278, -281, -274, -261, -257, -254, -244, -242, -244, -240, -237, -242, -240, -240, -242, -242, -240, -237])
('ECG', 1747930790184275522, [-240, -244, -252, -252, -247, -249, -249, -249, -244, -235, -237, -242, -237, -232, -237, -237, -232, -232, -235, -232, -223, -220, -227, -227, -223, -223, -223, -218, -213, -213, -223, -218, -208, -210, -215, -215, -220, -225, -218, -198, -189, -184, -179, -177, -189, -215, -230, -225, -223, -220, -213, -237, -283, -184, 283, 914, 1105, 278, -880, -824, -145, -169, -334, -186, -164, -227, -174, -143, -167, -143, -109, -111, -101])
('ECG', 1747930790745837240, [-80, -75, -63, -38, -41, -43, -26, -24, -43, -60, -77, -92, -111, -135, -155, -181, -215, -235, -249, -266, -278, -286, -286, -288, -283, -271, -269, -266, -252, -244, -249, -240, -232, -240, -244, -237, -232, -232, -235, -242, -242, -240, -244, -247, -247, -249, -249, -244, -244, -244, -244, -249, -244, -240, -232, -223, -232, -242, -232, -230, -235, -230, -227, -225, -215, -215, -223, -220, -213, -220, -232, -223, -210])
('ECG', 1747930791307398958, [-213, -208, -213, -227, -223, -198, -186, -194, -186, -169, -174, -198, -215, -220, -215, -208, -213, -230, -266, -208, 177, 800, 1122, 489, -720, -923, -237, -123, -327, -206, -133, -203, -184, -138, -150, -138, -106, -104, -99, -72, -53, -50, -48, -36, -29, -29, -33, -38, -43, -60, -80, -106, -130, -143, -169, -208, -232, -244, -257, -269, -281, -286, -286, -281, -269, -259, -254, -254, -247, -235, -232, -240, -240])
('ECG', 1747930791868960674, [-232, -232, -232, -227, -225, -227, -232, -240, -237, -227, -235, -240, -232, -223, -230, -232, -227, -230, -227, -225, -232, -232, -225, -220, -220, -223, -225, -215, -208, -213, -220, -213, -206, -215, -220, -206, -203, -218, -213, -201, -206, -206, -203, -215, -215, -189, -174, -177, -169, -164, -184, -213, -225, -218, -210, -203, -210, -244, -254, -36, 526, 1050, 865, -235, -1013, -528, -70, -266, -276, -126, -167, -201, -150])
('ECG', 1747930792430496962, [-135, -135, -111, -97, -92, -72, -53, -46, -43, -36, -24, -24, -31, -31, -38, -60, -75, -84, -111, -143, -162, -177, -203, -232, -244, -261, -281, -283, -271, -274, -274, -257, -249, -244, -232, -237, -244, -232, -225, -230, -227, -227, -232, -225, -230, -235, -225, -227, -237, -240, -237, -240, -235, -235, -240, -235, -225, -225, -235, -240, -230, -227, -230, -223, -220, -218, -213, -213, -215, -218, -220, -218, -208])
('ECG', 1747930792992063766, [-213, -220, -208, -201, -208, -213, -210, -206, -208, -215, -213, -194, -181, -181, -169, -155, -177, -210, -223, -220, -210, -203, -208, -225, -257, -194, 184, 788, 1079, 441, -725, -902, -232, -113, -295, -186, -135, -203, -169, -126, -135, -126, -104, -94, -75, -60, -60, -50, -36, -26, -14, -14, -24, -31, -46, -67, -75, -84, -111, -130, -147, -184, -210, -220, -242, -266, -266, -261, -264, -259, -247, -240, -237])
('ECG', 1747930793553615312, [-237, -232, -220, -225, -230, -218, -208, -213, -213, -210, -218, -225, -220, -215, -223, -225, -215, -218, -227, -223, -223, -227, -225, -218, -215, -218, -215, -210, -213, -220, -215, -206, -208, -213, -208, -203, -208, -208, -201, -203, -206, -203, -201, -198, -198, -203, -208, -198, -181, -174, -172, -160, -155, -169, -194, -206, -213, -208, -194, -201, -220, -247, -181, 196, 807, 1084, 395, -766, -880, -210, -128, -303, -179])
('ECG', 1747930794115177030, [-128, -196, -164, -128, -145, -123, -94, -94, -82, -63, -53, -43, -31, -26, -29, -24, -21, -33, -50, -58, -75, -104, -128, -145, -169, -201, -225, -235, -252, -269, -274, -276, -278, -271, -264, -264, -252, -232, -230, -235, -227, -220, -223, -227, -227, -230, -227, -220, -225, -227, -223, -230, -235, -227, -235, -240, -235, -237, -235, -230, -230, -235, -230, -220, -218, -223, -225, -218, -220, -227, -218, -208, -215])
('ECG', 1747930794676738748, [-218, -213, -206, -206, -215, -220, -206, -203, -210, -203, -194, -184, -172, -164, -172, -194, -220, -225, -206, -201, -220, -223, -232, -252, -46, 518, 1035, 822, -286, -1028, -521, -63, -249, -261, -123, -160, -189, -140, -130, -138, -116, -87, -75, -70, -65, -50, -36, -36, -36, -26, -21, -31, -43, -58, -80, -97, -106, -128, -167, -196, -210, -235, -259, -269, -278, -281, -278, -278, -274, -261, -252, -244, -242])
('ECG', 1747930795238300464, [-242, -232, -230, -237, -232, -227, -230, -230, -227, -223, -227, -232, -232, -235, -235, -235, -235, -232, -237, -237, -225, -223, -230, -232, -225, -215, -215, -218, -220, -223, -218, -210, -213, -220, -218, -210, -208, -213, -213, -213, -215, -206, -191, -181, -181, -172, -167, -194, -218, -220, -213, -218, -218, -213, -235, -235, 0, 550, 1030, 778, -346, -1035, -487, -70, -269, -252, -126, -186, -203, -138, -133, -143, -111])
('ECG', 1747930795799836752, [-89, -92, -80, -65, -50, -38, -36, -33, -24, -24, -29, -43, -63, -80, -99, -118, -138, -162, -196, -218, -232, -254, -274, -283, -291, -286, -278, -274, -261, -257, -257, -244, -230, -232, -242, -237, -232, -235, -232, -230, -227, -227, -225, -230, -235, -232, -235, -237, -237, -242, -242, -232, -230, -235, -227, -223, -232, -237, -227, -227, -227, -225, -225, -220, -218, -218, -215, -215, -220, -218, -210, -215, -220])
('ECG', 1747930796361393384, [-220, -220, -208, -189, -184, -179, -169, -179, -203, -213, -208, -208, -213, -215, -218, -247, -220, 89, 686, 1079, 596, -579, -977, -332, -87, -300, -218, -118, -196, -189, -126, -133, -138, -111, -97, -87, -65, -55, -55, -46, -26, -16, -29, -36, -36, -46, -65, -87, -101, -123, -155, -177, -198, -225, -242, -261, -274, -276, -286, -300, -288, -269, -261, -254, -249, -242, -230, -235, -237, -232, -232, -227, -223])
('ECG', 1747930796922955102, [-230, -225, -220, -227, -230, -225, -232, -230, -225, -232, -230, -220, -225, -227, -223, -225, -230, -223, -215, -223, -223, -213, -213, -218, -213, -208, -213, -218, -206, -206, -210, -206, -198, -206, -215, -213, -206, -194, -179, -174, -169, -167, -189, -215, -213, -208, -213, -210, -208, -237, -249, -33, 526, 1057, 890, -218, -1037, -562, -67, -249, -269, -126, -172, -206, -145, -133, -140, -106, -84, -84, -75, -53, -48])
('ECG', 1747930797484506646, [-50, -38, -26, -21, -16, -21, -36, -65, -80, -89, -109, -133, -160, -184, -210, -244, -264, -269, -274, -278, -281, -283, -276, -261, -252, -249, -247, -242, -240, -237, -235, -227, -223, -225, -230, -232, -230, -232, -230, -225, -237, -242, -230, -225, -235, -235, -232, -232, -220, -215, -227, -227, -218, -215, -220, -218, -215, -220, -218, -201, -196, -208, -208, -196, -198, -210, -213, -206, -206, -198, -177, -164, -172])
('ECG', 1747930798046048020, [-172, -179, -203, -215, -208, -206, -208, -208, -225, -269, -167, 322, 977, 1117, 169, -982, -819, -169, -220, -298, -133, -145, -201, -140, -111, -126, -111, -89, -77, -67, -63, -48, -29, -21, -24, -19, -16, -21, -38, -55, -72, -92, -111, -138, -160, -181, -210, -237, -257, -266, -271, -278, -281, -283, -281, -269, -254, -252, -249, -252, -242, -225, -220, -227, -227, -227, -230, -225, -218, -225, -235, -230, -218])
('ECG', 1747930798607609738, [-223, -227, -225, -227, -232, -225, -218, -220, -227, -225, -215, -213, -218, -223, -218, -213, -210, -213, -210, -208, -210, -208, -203, -206, -215, -213, -213, -210, -194, -179, -174, -164, -160, -174, -203, -218, -215, -213, -208, -208, -227, -261, -150, 339, 987, 1137, 230, -916, -795, -126, -169, -312, -160, -130, -196, -162, -135, -147, -126, -99, -94, -82, -65, -50, -36, -29, -29, -19, -9, -14, -29, -41, -50])
('ECG', 1747930799169171456, [-72, -101, -130, -162, -184, -208, -242, -257, -264, -281, -288, -278, -283, -295, -286, -259, -252, -259, -249, -232, -235, -242, -232, -227, -230, -230, -225, -223, -227, -232, -230, -225, -230, -232, -232, -235, -235, -225, -215, -230, -235, -215, -213, -230, -225, -208, -210, -213, -218, -223, -213, -198, -208, -215, -206, -201, -208, -206, -201, -210, -215, -206, -191, -181, -174, -169, -169, -181, -196, -208, -213, -208, -208])
('ECG', 1747930799730733174, [-213, -218, -254, -225, 138, 783, 1159, 601, -623, -957, -286, -92, -310, -218, -128, -201, -184, -121, -128, -133, -111, -94, -80, -67, -58, -46, -36, -26, -16, -16, -16, -16, -29, -50, -70, -84, -111, -143, -174, -206, -237, -252, -264, -283, -283, -274, -281, -291, -281, -266, -261, -259, -252, -240, -227, -223, -230, -237, -230, -225, -232, -230, -218, -223, -227, -223, -225, -232, -230, -232, -227, -227, -232])
('ECG', 1747930800292264374, [-230, -220, -223, -223, -213, -213, -220, -223, -218, -208, -203, -206, -206, -206, -208, -213, -213, -201, -196, -203, -208, -203, -201, -201, -201, -198, -189, -179, -177, -177, -164, -164, -186, -210, -215, -198, -189, -196, -208, -237, -240, 26, 635, 1147, 851, -354, -1037, -446, -46, -274, -252, -118, -184, -201, -130, -121, -138, -121, -101, -89, -67, -50, -50, -46, -26, -14, -12, -14, -19, -29, -46, -63, -82])
('ECG', 1747930800853826092, [-101, -123, -157, -194, -218, -242, -264, -269, -276, -288, -286, -276, -278, -274, -259, -252, -247, -237, -223, -218, -223, -230, -225, -218, -215, -218, -223, -223, -218, -220, -220, -220, -220, -220, -225, -227, -227, -225, -225, -223, -215, -213, -220, -223, -218, -218, -215, -208, -208, -213, -210, -206, -210, -208, -201, -203, -210, -208, -203, -198, -191, -198, -201, -198, -198, -198, -181, -169, -167, -164, -167, -179, -196])
('ECG', 1747930801415382722, [-213, -210, -198, -206, -213, -235, -269, -128, 409, 1062, 1137, 99, -1030, -761, -121, -230, -298, -128, -145, -189, -130, -118, -138, -109, -80, -84, -70, -46, -41, -38, -21, 0, 0, -12, -19, -26, -38, -55, -77, -99, -123, -145, -174, -203, -230, -259, -271, -266, -274, -288, -281, -271, -274, -266, -252, -249, -247, -235, -230, -225, -208, -206, -218, -215, -208, -213, -220, -227, -230, -225, -223, -215, -213])
('ECG', 1747930801976919010, [-223, -225, -220, -223, -223, -218, -223, -227, -225, -213, -206, -210, -213, -203, -201, -210, -210, -208, -213, -213, -201, -201, -210, -208, -186, -169, -174, -174, -167, -184, -210, -220, -218, -210, -206, -213, -247, -293, -155, 392, 1069, 1147, 72, -1086, -797, -130, -235, -303, -128, -152, -203, -138, -118, -138, -116, -89, -87, -72, -50, -36, -26, -14, -12, -12, -2, 0, -14, -33, -55, -77, -94, -123, -167])
('ECG', 1747930802538455296, [-196, -218, -244, -264, -274, -283, -286, -288, -283, -274, -271, -274, -271, -261, -244, -237, -235, -230, -220, -215, -215, -220, -218, -213, -210, -218, -227, -225, -215, -220, -227, -227, -223, -218, -223, -227, -220, -220, -225, -215, -213, -220, -218, -215, -218, -210, -206, -210, -213, -208, -208, -208, -203, -201, -203, -206, -210, -210, -196, -184, -179, -167, -160, -172, -186, -198, -213, -215, -203, -198, -206, -235, -257])
('ECG', 1747930803100011928, [-65, 516, 1142, 1103, -12, -1025, -628, -50, -242, -310, -130, -164, -220, -155, -133, -147, -121, -99, -104, -87, -60, -50, -38, -24, -19, -16, -7, 0, -9, -29, -55, -70, -89, -118, -147, -191, -227, -242, -259, -276, -291, -300, -298, -286, -276, -266, -264, -266, -259, -254, -240, -223, -225, -230, -220, -215, -220, -215, -213, -218, -218, -213, -220, -227, -220, -215, -225, -230, -223, -218, -223, -223, -218])
('ECG', 1747930803661558386, [-220, -218, -206, -208, -218, -210, -206, -215, -210, -196, -206, -210, -201, -198, -196, -194, -198, -198, -196, -191, -196, -210, -206, -189, -177, -167, -164, -157, -160, -184, -203, -206, -201, -198, -201, -210, -242, -257, -21, 574, 1149, 1011, -133, -1016, -531, -26, -254, -295, -130, -169, -206, -150, -140, -140, -113, -101, -99, -80, -60, -55, -46, -29, -19, -9, -4, -4, -19, -43, -58, -67, -89, -123, -152])
('ECG', 1747930804223104846, [-184, -215, -242, -261, -281, -291, -293, -288, -281, -278, -276, -269, -254, -242, -249, -252, -242, -230, -223, -223, -223, -218, -223, -220, -208, -223, -242, -232, -223, -230, -225, -223, -232, -225, -220, -240, -232, -208, -215, -225, -213, -208, -213, -210, -206, -203, -208, -213, -206, -206, -215, -203, -196, -206, -201, -196, -201, -198, -196, -208, -206, -201, -206, -196, -174, -172, -169, -160, -169, -201, -210, -198, -196])
('ECG', 1747930804784661476, [-208, -208, -213, -249, -230, 106, 771, 1248, 776, -545, -1050, -341, -75, -322, -227, -121, -208, -194, -123, -135, -143, -106, -87, -84, -70, -55, -48, -36, -19, -2, 4, 2, -12, -19, -31, -58, -72, -84, -126, -169, -191, -213, -242, -264, -274, -283, -291, -291, -293, -288, -271, -266, -266, -259, -247, -235, -220, -218, -225, -223, -218, -218, -215, -213, -223, -227, -223, -223, -227, -227, -227, -227, -223])
('ECG', 1747930805346197762, [-225, -227, -235, -232, -225, -223, -213, -210, -223, -218, -203, -210, -225, -220, -206, -208, -201, -194, -201, -210, -213, -206, -194, -179, -167, -167, -162, -164, -191, -213, -206, -198, -198, -206, -230, -274, -261, 70, 771, 1299, 824, -574, -1139, -404, -92, -327, -232, -109, -184, -191, -128, -126, -128, -99, -82, -77, -60, -46, -33, -12, 0, -4, 0, 9, -2, -19, -29, -50, -82, -109, -135, -164, -201])
('ECG', 1747930805907734050, [-235, -257, -274, -288, -293, -293, -295, -295, -291, -286, -271, -261, -252, -247, -240, -227, -220, -218, -213, -210, -220, -218, -208, -213, -225, -230, -230, -232, -230, -223, -220, -227, -240, -235, -223, -227, -232, -225, -227, -225, -215, -215, -220, -213, -210, -213, -210, -206, -210, -213, -208, -210, -218, -210, -186, -177, -174, -167, -172, -201, -218, -215, -210, -206, -210, -235, -264, -254, 26, 671, 1229, 933, -366])
('ECG', 1747930806469290682, [-1115, -468, -46, -303, -274, -123, -184, -201, -145, -138, -133, -104, -101, -94, -70, -55, -43, -21, -9, -12, -7, 4, 0, -21, -33, -48, -67, -92, -123, -164, -208, -240, -259, -271, -291, -310, -307, -291, -288, -293, -281, -271, -274, -269, -259, -249, -237, -230, -235, -232, -235, -237, -223, -223, -240, -237, -227, -230, -237, -232, -232, -242, -237, -230, -235, -237, -240, -232, -223, -223, -227, -223, -223])
('ECG', 1747930807030821882, [-220, -210, -213, -220, -210, -210, -220, -218, -203, -206, -213, -203, -198, -208, -206, -196, -206, -213, -201, -191, -198, -208, -213, -208, -198, -179, -164, -172, -177, -179, -196, -201, -201, -215, -210, -196, -218, -264, -223, 145, 812, 1258, 771, -516, -979, -298, -72, -341, -249, -130, -213, -206, -152, -164, -147, -113, -113, -106, -75, -63, -70, -67, -36, -14, -24, -29, -19, -26, -48, -63, -82, -113, -133])
('ECG', 1747930807592353082, [-157, -196, -230, -249, -264, -281, -288, -291, -286, -283, -281, -269, -264, -264, -249, -232, -230, -230, -227, -232, -232, -227, -230, -225, -208, -218, -242, -235, -220, -232, -240, -230, -227, -230, -232, -235, -240, -242, -235, -220, -218, -220, -220, -220, -223, -218, -208, -198, -191, -194, -196, -194, -194, -201, -194, -184, -189, -191, -184, -179, -179, -181, -189, -191, -181, -169, -155, -152, -160, -152, -155, -181, -203])
('ECG', 1747930808153909712, [-198, -186, -186, -196, -220, -278, -227, 162, 783, 1137, 630, -516, -848, -247, -92, -312, -232, -145, -206, -198, -160, -172, -160, -128, -123, -118, -99, -77, -67, -65, -53, -41, -38, -36, -43, -60, -58, -67, -99, -121, -138, -164, -208, -242, -254, -259, -276, -293, -305, -298, -274, -274, -276, -264, -254, -252, -242, -235, -232, -225, -225, -232, -237, -230, -227, -232, -237, -237, -240, -240, -235, -225, -223])
('ECG', 1747930808715415482, [-227, -240, -254, -252, -242, -237, -232, -225, -223, -215, -213, -232, -240, -223, -220, -230, -230, -218, -208, -213, -218, -213, -218, -237, -235, -213, -196, -186, -184, -177, -177, -196, -220, -235, -230, -215, -218, -230, -276, -300, -55, 535, 1042, 822, -283, -996, -485, -87, -291, -271, -145, -201, -208, -145, -145, -155, -126, -111, -116, -101, -80, -70, -60, -48, -46, -41, -36, -41, -48, -60, -82, -104, -123])
