('ECG', 1763927118857238000, [1747, 3727, 4550, 4616, 4985, 5187, 5037, 4976, 4955, 4779, 4583, 4459, 4319, 4138, 3954, 3766, 3568, 3366, 3179, 3001, 2821, 2636, 2444, 2255, 2068, 1876, 1705, 1558, 1387, 1190, 1024, 875, 706, 531, 374, 231, 91, -46, -201, -355, -460, -559, -697, -832, -949, -1066, -1165, -1261, -1373, -1483, -1586, -1686, -1768, -1864, -1979, -2061, -2117, -2196, -2299, -2384, -2451, -2526, -2601, -2648, -2692, -2758, -2828, -2898, -2983, -3050, -3095, -3130, -3174])
('ECG', 1763927119418804804, [-3254, -3376, -3394, -3125, -2622, -2180, -2487, -3619, -4136, -3677, -3514, -3706, -3689, -3654, -3689, -3687, -3706, -3720, -3692, -3696, -3729, -3708, -3668, -3687, -3724, -3717, -3682, -3673, -3684, -3663, -3647, -3703, -3722, -3628, -3605, -3703, -3792, -3830, -3874, -3928, -3935, -3918, -3930, -3965, -3972, -3935, -3918, -3949, -3949, -3904, -3886, -3881, -3853, -3825, -3820, -3834, -3827, -3785, -3773, -3783, -3769, -3757, -3750, -3731, -3713, -3694, -3684, -3708, -3729, -3696, -3640, -3626, -3617])
('ECG', 1763927119980356350, [-3584, -3575, -3575, -3546, -3525, -3532, -3532, -3497, -3458, -3472, -3490, -3436, -3394, -3404, -3376, -3329, -3308, -3294, -3291, -3277, -3247, -3238, -3240, -3240, -3261, -3242, -3163, -3146, -3191, -3179, -2943, -2400, -1813, -1860, -2863, -3556, -3142, -2852, -3025, -2947, -2835, -2905, -2882, -2793, -2786, -2774, -2716, -2685, -2704, -2699, -2625, -2566, -2566, -2566, -2533, -2473, -2409, -2384, -2374, -2344, -2318, -2309, -2302, -2323, -2381, -2430, -2451, -2480, -2510, -2510, -2491, -2480, -2480])
('ECG', 1763927120541918068, [-2463, -2433, -2421, -2400, -2372, -2363, -2344, -2309, -2264, -2213, -2210, -2225, -2178, -2129, -2131, -2136, -2126, -2119, -2098, -2054, -2002, -1984, -2005, -2000, -1948, -1918, -1925, -1913, -1885, -1885, -1892, -1867, -1846, -1843, -1824, -1803, -1801, -1792, -1775, -1761, -1747, -1754, -1759, -1714, -1675, -1672, -1675, -1668, -1670, -1682, -1684, -1665, -1640, -1628, -1626, -1651, -1682, -1499, -973, -369, -350, -1328, -2138, -1787, -1424, -1605, -1595, -1450, -1495, -1511, -1436, -1424, -1445])
('ECG', 1763927121103474698, [-1413, -1371, -1349, -1328, -1317, -1312, -1282, -1256, -1244, -1218, -1183, -1146, -1111, -1080, -1069, -1078, -1099, -1125, -1172, -1233, -1277, -1300, -1328, -1349, -1338, -1317, -1314, -1326, -1307, -1275, -1263, -1254, -1240, -1247, -1242, -1209, -1183, -1176, -1165, -1148, -1146, -1144, -1132, -1116, -1106, -1087, -1071, -1078, -1085, -1069, -1059, -1066, -1059, -1038, -1027, -1024, -1020, -1010, -1008, -1013, -1001, -982, -982, -985, -968, -954, -954, -959, -959, -954, -938, -914, -900])
('ECG', 1763927121665010986, [-910, -924, -900, -870, -896, -931, -905, -868, -872, -884, -896, -938, -877, -498, 107, 460, -116, -1200, -1312, -781, -797, -956, -828, -769, -814, -783, -744, -755, -751, -715, -708, -718, -694, -669, -655, -622, -589, -584, -573, -531, -505, -514, -514, -498, -510, -549, -591, -648, -708, -758, -788, -809, -832, -832, -814, -809, -804, -788, -776, -774, -769, -765, -755, -748, -734, -725, -727, -715, -699, -692, -685, -673, -673])
('ECG', 1763927122226572704, [-673, -662, -664, -671, -662, -648, -652, -655, -629, -612, -629, -631, -612, -615, -608, -587, -594, -605, -582, -570, -594, -603, -577, -570, -580, -568, -552, -545, -540, -533, -533, -547, -570, -563, -545, -542, -549, -561, -582, -622, -601, -290, 306, 772, 404, -718, -1125, -608, -479, -664, -570, -503, -568, -538, -472, -486, -500, -460, -439, -463, -463, -416, -386, -376, -362, -343, -327, -299, -276, -269, -257, -252, -278])
('ECG', 1763927122788134422, [-327, -372, -421, -486, -535, -561, -582, -591, -587, -598, -620, -605, -582, -577, -577, -566, -545, -526, -517, -526, -528, -507, -496, -500, -498, -481, -486, -498, -486, -477, -479, -477, -479, -481, -467, -458, -467, -470, -458, -453, -458, -451, -444, -444, -442, -444, -451, -437, -418, -425, -451, -442, -416, -423, -432, -421, -414, -409, -397, -390, -395, -397, -383, -379, -400, -416, -414, -407, -404, -414, -435, -488, -451])
('ECG', 1763927123349696140, [-109, 488, 905, 432, -685, -945, -404, -346, -526, -414, -346, -409, -397, -353, -353, -353, -329, -311, -297, -285, -285, -278, -257, -236, -217, -201, -177, -163, -156, -142, -138, -154, -189, -240, -299, -364, -425, -453, -456, -486, -503, -472, -465, -484, -477, -458, -442, -435, -444, -442, -425, -418, -409, -402, -402, -393, -381, -386, -402, -404, -402, -400, -397, -364, -341, -364, -381, -364, -369, -393, -386, -357, -353])
('ECG', 1763927123911247684, [-369, -379, -364, -350, -357, -367, -350, -329, -341, -360, -355, -348, -348, -343, -343, -360, -369, -353, -327, -320, -336, -348, -322, -301, -336, -350, -318, -334, -383, -393, -341, -304, -379, -470, -400, -102, 404, 886, 631, -458, -945, -432, -283, -498, -350, -271, -423, -395, -283, -308, -329, -313, -332, -304, -238, -248, -269, -226, -201, -226, -208, -116, -88, -138, -128, -109, -149, -198, -210, -203, -278, -397, -418])
('ECG', 1763927124472789058, [-409, -458, -488, -484, -453, -421, -449, -477, -437, -414, -416, -395, -393, -390, -367, -374, -402, -386, -346, -348, -367, -360, -364, -390, -367, -348, -364, -353, -346, -348, -332, -367, -400, -336, -313, -376, -374, -322, -315, -341, -355, -343, -322, -320, -329, -336, -336, -346, -327, -276, -287, -315, -290, -294, -339, -336, -313, -325, -348, -332, -322, -372, -369, -119, 383, 861, 683, -346, -921, -460, -226, -418, -355])
('ECG', 1763927125034350776, [-273, -348, -320, -257, -276, -271, -238, -259, -278, -224, -168, -156, -175, -194, -156, -84, -65, -79, -67, -56, -84, -107, -112, -140, -170, -212, -315, -407, -407, -386, -409, -416, -386, -395, -437, -425, -369, -346, -348, -357, -357, -341, -336, -339, -339, -334, -306, -301, -329, -329, -313, -334, -343, -304, -292, -320, -325, -313, -318, -327, -334, -329, -290, -283, -315, -304, -278, -287, -308, -332, -318, -276, -294])
('ECG', 1763927125595912494, [-318, -304, -304, -280, -245, -262, -283, -264, -271, -313, -304, -264, -283, -285, -257, -294, -367, -390, -198, 322, 917, 935, -58, -917, -589, -203, -374, -374, -240, -280, -304, -250, -262, -283, -224, -180, -189, -189, -191, -196, -163, -124, -109, -100, -72, -58, -58, -49, -9, -9, -95, -147, -131, -212, -353, -367, -336, -381, -404, -397, -400, -407, -400, -379, -372, -353, -336, -386, -400, -325, -304, -334, -325])
('ECG', 1763927126157443694, [-304, -301, -320, -325, -294, -278, -315, -336, -315, -322, -308, -264, -285, -325, -297, -271, -297, -313, -283, -273, -308, -292, -266, -292, -311, -292, -264, -262, -285, -285, -262, -266, -285, -269, -238, -240, -266, -280, -280, -266, -262, -285, -285, -283, -346, -306, 74, 662, 1029, 507, -631, -853, -259, -196, -409, -297, -210, -283, -280, -236, -243, -233, -196, -182, -201, -196, -159, -149, -138, -100, -86, -77, -74])
('ECG', 1763927126719005412, [-63, -21, -9, -32, -46, -81, -131, -189, -280, -308, -294, -353, -388, -360, -376, -400, -390, -369, -332, -327, -334, -318, -332, -336, -297, -290, -311, -294, -276, -276, -294, -297, -257, -269, -311, -280, -259, -287, -292, -283, -278, -266, -269, -271, -252, -273, -311, -283, -236, -248, -266, -264, -273, -262, -248, -264, -276, -259, -231, -224, -238, -252, -248, -219, -210, -248, -280, -278, -266, -252, -252, -308, -341])
('ECG', 1763927127280556956, [-138, 360, 924, 940, -56, -889, -505, -140, -381, -367, -168, -222, -283, -198, -170, -226, -233, -184, -159, -156, -145, -140, -112, -79, -84, -72, -32, -18, -35, -30, -4, -9, -49, -81, -124, -205, -276, -299, -327, -357, -362, -355, -355, -355, -355, -346, -327, -318, -329, -325, -304, -311, -311, -276, -264, -299, -306, -269, -276, -299, -285, -273, -280, -276, -250, -255, -292, -280, -245, -271, -311, -285, -243])
('ECG', 1763927127842098330, [-243, -236, -231, -255, -266, -266, -262, -250, -259, -257, -229, -231, -233, -215, -238, -276, -236, -180, -212, -233, -205, -233, -264, -233, -231, -262, -245, -252, -322, -276, 91, 687, 1076, 554, -577, -781, -231, -210, -376, -250, -212, -276, -224, -173, -198, -194, -173, -184, -170, -147, -168, -149, -65, -56, -84, -58, -25, -16, 4, 9, -16, -39, -53, -98, -170, -222, -273, -327, -339, -325, -334, -357, -357])
('ECG', 1763927128403660046, [-343, -346, -362, -350, -304, -283, -301, -306, -287, -299, -311, -264, -245, -287, -280, -262, -283, -292, -299, -278, -236, -248, -269, -250, -250, -292, -299, -238, -224, -276, -271, -233, -248, -276, -264, -240, -236, -233, -245, -255, -245, -236, -243, -231, -217, -222, -215, -191, -226, -280, -259, -222, -233, -250, -273, -320, -177, 301, 886, 1029, 170, -816, -624, -149, -269, -320, -187, -219, -278, -233, -187, -184, -182])
('ECG', 1763927128965196334, [-170, -161, -138, -121, -119, -102, -81, -67, -58, -39, -4, 9, 9, 9, -4, -21, -56, -133, -205, -243, -278, -308, -329, -350, -353, -339, -341, -353, -346, -325, -315, -299, -278, -304, -315, -276, -262, -283, -292, -276, -269, -271, -236, -224, -266, -271, -262, -271, -245, -238, -262, -257, -243, -248, -255, -255, -240, -233, -252, -240, -219, -245, -276, -250, -203, -210, -243, -238, -229, -233, -212, -208, -233])
('ECG', 1763927129526763138, [-233, -212, -203, -217, -245, -245, -219, -240, -273, -283, -285, -107, 369, 926, 968, 11, -868, -528, -98, -299, -327, -145, -194, -264, -196, -175, -187, -170, -180, -180, -138, -91, -79, -109, -93, -39, -58, -56, 37, 53, -14, -14, 18, -28, -79, -79, -140, -250, -304, -304, -313, -353, -350, -320, -332, -350, -320, -273, -280, -311, -292, -266, -280, -290, -278, -283, -287, -264, -233, -229, -266, -283, -252])
('ECG', 1763927130088299424, [-238, -243, -240, -250, -262, -259, -264, -255, -229, -233, -259, -257, -238, -231, -231, -219, -229, -262, -245, -205, -229, -264, -243, -224, -222, -208, -215, -252, -257, -217, -215, -243, -243, -243, -248, -243, -278, -308, -138, 400, 1071, 1116, 46, -893, -559, -121, -276, -329, -203, -166, -187, -189, -173, -163, -161, -128, -100, -109, -107, -74, -67, -70, -37, 11, 28, 30, 51, 51, 32, 18, -21, -65, -86])
('ECG', 1763927130649845884, [-138, -231, -290, -301, -313, -332, -339, -334, -325, -313, -327, -334, -304, -283, -290, -287, -276, -262, -257, -250, -243, -238, -238, -236, -226, -224, -236, -240, -222, -208, -222, -233, -226, -222, -231, -240, -240, -229, -224, -229, -222, -217, -238, -262, -240, -196, -210, -255, -243, -184, -175, -224, -210, -149, -180, -240, -236, -248, -329, -313, 100, 800, 1165, 519, -662, -832, -240, -184, -320, -191, -156, -219, -196])
('ECG', 1763927131211407602, [-175, -189, -184, -159, -133, -156, -145, -65, -51, -93, -95, -51, -2, -7, -2, 30, -16, -58, -23, -58, -149, -173, -224, -322, -339, -325, -353, -364, -362, -350, -325, -343, -346, -299, -315, -329, -271, -269, -313, -304, -280, -287, -278, -250, -269, -301, -271, -240, -273, -304, -287, -262, -250, -233, -222, -252, -266, -222, -208, -250, -266, -240, -222, -215, -229, -231, -203, -215, -245, -236, -229, -245, -262])
('ECG', 1763927131772969318, [-259, -236, -229, -252, -252, -255, -299, -346, -182, 329, 898, 947, 37, -891, -617, -121, -285, -381, -231, -233, -308, -280, -248, -240, -201, -156, -166, -189, -191, -182, -161, -138, -121, -91, -49, -23, -23, -39, -51, -46, -65, -109, -149, -215, -287, -297, -292, -357, -404, -346, -294, -336, -364, -327, -313, -325, -306, -292, -304, -301, -280, -266, -269, -278, -271, -259, -262, -257, -240, -233, -238, -243, -243])
('ECG', 1763927132334531038, [-236, -229, -238, -243, -224, -215, -217, -212, -205, -208, -210, -205, -194, -189, -191, -184, -170, -168, -194, -215, -210, -201, -196, -194, -222, -276, -163, 297, 889, 1038, 222, -776, -629, -107, -198, -278, -140, -147, -189, -142, -131, -152, -133, -105, -105, -93, -60, -49, -42, -23, 0, 23, 35, 30, 39, 51, 46, 39, 25, -16, -65, -126, -189, -233, -262, -287, -306, -311, -308, -311, -308, -292, -269])
('ECG', 1763927132896092756, [-259, -271, -285, -280, -262, -257, -259, -243, -224, -238, -273, -283, -273, -233, -196, -219, -240, -215, -215, -236, -212, -191, -212, -240, -233, -196, -184, -212, -201, -149, -159, -215, -212, -189, -203, -208, -196, -224, -301, -320, -11, 673, 1251, 842, -505, -1013, -357, -159, -346, -198, -119, -205, -168, -112, -133, -121, -93, -102, -98, -70, -46, -37, -23, 2, 21, 37, 56, 65, 74, 86, 65, 23, -2])
('ECG', 1763927133457639214, [-46, -112, -168, -217, -255, -280, -308, -311, -292, -306, -315, -290, -280, -269, -250, -262, -273, -252, -229, -229, -240, -240, -233, -231, -231, -229, -226, -224, -229, -231, -229, -233, -238, -240, -233, -219, -210, -203, -203, -203, -201, -208, -224, -229, -215, -205, -215, -233, -294, -329, -56, 622, 1263, 1008, -332, -1071, -465, -138, -362, -266, -133, -203, -198, -138, -147, -152, -126, -114, -105, -86, -72, -60, -44])
('ECG', 1763927134019185674, [-23, 0, 23, 32, 23, 30, 42, 35, 11, -14, -65, -140, -198, -240, -280, -313, -332, -339, -334, -329, -322, -308, -299, -306, -304, -283, -278, -283, -269, -262, -262, -255, -250, -255, -250, -257, -269, -252, -238, -248, -248, -243, -245, -250, -252, -245, -226, -215, -217, -229, -226, -212, -222, -243, -243, -236, -236, -231, -236, -283, -343, -194, 362, 1048, 1193, 194, -917, -655, -91, -264, -343, -180, -205])
('ECG', 1763927134580747392, [-245, -175, -168, -191, -166, -140, -140, -133, -107, -86, -84, -72, -39, -11, -4, -2, 9, 21, 14, -4, -21, -58, -124, -187, -231, -266, -292, -304, -315, -318, -306, -299, -304, -287, -269, -269, -264, -248, -243, -240, -238, -245, -248, -236, -219, -217, -224, -226, -224, -222, -222, -224, -226, -222, -210, -205, -219, -229, -219, -208, -198, -191, -191, -189, -191, -210, -217, -205, -201, -210, -215, -243, -308])
('ECG', 1763927135142309110, [-226, 240, 938, 1293, 521, -762, -790, -128, -187, -357, -182, -135, -212, -187, -156, -166, -154, -128, -112, -105, -93, -67, -46, -39, -28, 4, 32, 39, 39, 39, 32, 16, 9, -4, -65, -154, -212, -233, -262, -299, -306, -292, -285, -290, -285, -273, -269, -264, -266, -269, -257, -243, -222, -194, -203, -233, -226, -212, -219, -224, -222, -217, -219, -224, -219, -212, -219, -226, -219, -208, -208, -201, -191])
('ECG', 1763927135703870828, [-189, -182, -184, -212, -222, -203, -196, -203, -210, -243, -315, -240, 264, 1059, 1473, 587, -863, -868, -119, -187, -367, -170, -128, -208, -166, -133, -159, -147, -116, -98, -84, -72, -60, -46, -25, 0, 14, 30, 49, 49, 46, 49, 35, -2, -35, -77, -152, -222, -257, -285, -308, -311, -311, -308, -306, -301, -290, -276, -271, -269, -257, -250, -252, -255, -245, -240, -238, -226, -224, -233, -236, -231, -229])
('ECG', 1763927136265432546, [-226, -233, -236, -222, -217, -233, -245, -236, -215, -203, -203, -201, -191, -194, -215, -215, -201, -208, -217, -215, -243, -322, -292, 131, 877, 1380, 736, -692, -935, -191, -145, -374, -217, -152, -236, -194, -145, -180, -177, -140, -128, -119, -98, -84, -74, -53, -30, -23, -16, 4, 23, 23, 11, -2, -23, -58, -105, -166, -224, -264, -287, -306, -318, -322, -315, -301, -297, -292, -285, -278, -264, -252, -245])
('ECG', 1763927136826979004, [-245, -245, -233, -224, -226, -219, -217, -229, -231, -217, -210, -224, -226, -208, -205, -212, -208, -201, -210, -219, -208, -198, -205, -208, -191, -180, -184, -184, -175, -180, -201, -205, -191, -189, -194, -208, -255, -308, -138, 430, 1116, 1209, 133, -921, -552, -18, -259, -332, -142, -173, -231, -166, -133, -142, -126, -105, -95, -84, -79, -70, -46, -28, -18, 2, 28, 44, 49, 49, 46, 32, 4, -30, -88])
('ECG', 1763927137388545808, [-156, -198, -229, -262, -287, -290, -278, -271, -278, -276, -259, -250, -243, -224, -212, -219, -226, -215, -201, -196, -203, -210, -210, -210, -210, -208, -205, -208, -198, -196, -201, -191, -184, -194, -203, -205, -198, -191, -189, -196, -189, -175, -166, -163, -166, -170, -170, -177, -194, -196, -184, -175, -187, -240, -301, -135, 449, 1165, 1293, 180, -987, -634, -32, -233, -304, -128, -154, -203, -142, -126, -142, -121, -100])
('ECG', 1763927137950112612, [-84, -65, -56, -44, -32, -25, -2, 23, 32, 49, 67, 56, 44, 42, 18, -25, -79, -135, -187, -238, -276, -283, -285, -299, -294, -283, -283, -283, -278, -262, -229, -226, -245, -238, -219, -219, -222, -222, -222, -224, -226, -219, -215, -215, -215, -215, -219, -222, -226, -224, -208, -201, -215, -222, -210, -203, -196, -191, -194, -196, -196, -201, -201, -203, -203, -194, -201, -266, -346, -187, 402, 1151, 1321])
('ECG', 1763927138511648900, [196, -1024, -676, -56, -266, -332, -142, -184, -229, -145, -135, -163, -133, -112, -116, -102, -81, -72, -56, -39, -32, -4, 28, 25, 16, 30, 30, 11, -9, -46, -109, -177, -236, -273, -285, -292, -308, -311, -306, -308, -304, -292, -287, -276, -257, -250, -248, -243, -243, -238, -233, -233, -231, -224, -233, -233, -224, -226, -226, -217, -212, -219, -222, -222, -233, -236, -229, -222, -219, -219, -217, -222, -222])
('ECG', 1763927139073215704, [-215, -212, -205, -198, -196, -196, -201, -219, -224, -208, -203, -217, -233, -283, -294, 4, 666, 1240, 919, -353, -928, -304, -70, -341, -259, -128, -210, -219, -147, -147, -161, -142, -124, -109, -93, -84, -63, -39, -30, -21, 2, 23, 30, 35, 35, 28, 18, -11, -63, -119, -175, -224, -257, -280, -294, -301, -297, -287, -285, -285, -269, -250, -257, -257, -240, -231, -229, -229, -226, -222, -212, -212, -215])
('ECG', 1763927139634772336, [-217, -222, -224, -215, -210, -217, -215, -201, -205, -212, -205, -198, -203, -203, -194, -194, -203, -201, -196, -189, -189, -198, -201, -189, -177, -170, -166, -163, -156, -161, -184, -194, -191, -189, -180, -180, -238, -283, -46, 535, 1120, 1008, -128, -905, -386, -25, -294, -269, -105, -170, -194, -131, -133, -147, -116, -107, -107, -86, -60, -44, -23, -9, -7, 7, 32, 44, 46, 42, 37, 32, 18, -16, -79])
('ECG', 1763927140196334054, [-142, -184, -219, -259, -283, -280, -280, -290, -280, -259, -259, -262, -243, -229, -231, -226, -215, -208, -210, -210, -208, -205, -205, -201, -201, -208, -203, -196, -196, -203, -208, -198, -189, -194, -198, -191, -187, -187, -191, -198, -187, -177, -182, -184, -187, -191, -180, -163, -166, -170, -152, -145, -163, -187, -189, -180, -182, -180, -177, -226, -297, -112, 488, 1176, 1214, 56, -982, -545, -23, -245, -276, -109, -154])
('ECG', 1763927140757885598, [-184, -121, -116, -128, -93, -79, -88, -79, -51, -25, -7, 0, 9, 30, 49, 58, 63, 70, 63, 46, 23, -16, -67, -124, -175, -217, -257, -271, -273, -290, -294, -285, -283, -276, -259, -236, -231, -243, -238, -215, -205, -215, -222, -212, -198, -203, -219, -222, -208, -201, -205, -205, -210, -215, -208, -201, -201, -201, -198, -191, -194, -198, -196, -194, -198, -208, -210, -191, -182, -182, -175, -168, -163])
('ECG', 1763927141319452402, [-163, -184, -201, -196, -191, -182, -175, -212, -294, -189, 348, 1080, 1335, 383, -879, -694, -32, -187, -311, -119, -128, -198, -140, -119, -135, -105, -81, -86, -77, -58, -46, -37, -25, -2, 23, 37, 46, 56, 60, 56, 39, 16, -18, -70, -135, -194, -226, -250, -276, -290, -297, -306, -299, -280, -269, -273, -266, -250, -245, -245, -233, -219, -219, -224, -224, -224, -219, -210, -210, -224, -224, -208, -196])
('ECG', 1763927141881019206, [-198, -205, -203, -196, -198, -210, -205, -196, -198, -189, -180, -189, -196, -187, -182, -187, -189, -184, -177, -180, -177, -173, -184, -189, -170, -159, -156, -152, -149, -152, -166, -184, -187, -173, -166, -170, -208, -280, -189, 290, 977, 1284, 472, -753, -692, -56, -161, -320, -152, -138, -205, -152, -128, -154, -131, -105, -116, -105, -70, -56, -46, -32, -23, -9, 21, 39, 49, 44, 25, 25, 23, -14, -70])
('ECG', 1763927142442555494, [-116, -161, -215, -262, -278, -285, -297, -292, -278, -280, -280, -262, -252, -255, -243, -226, -224, -224, -222, -219, -222, -219, -212, -212, -212, -205, -208, -208, -203, -205, -215, -217, -205, -201, -208, -205, -198, -203, -205, -196, -191, -191, -184, -187, -194, -184, -170, -177, -194, -194, -184, -175, -175, -182, -184, -180, -170, -159, -147, -138, -145, -149, -149, -170, -189, -182, -170, -170, -180, -229, -273, -74, 500])
('ECG', 1763927143004112126, [1134, 1099, -4, -870, -425, -14, -252, -271, -133, -187, -203, -135, -128, -140, -114, -107, -102, -77, -67, -72, -56, -28, -9, 0, 18, 32, 25, 21, 32, 28, -9, -44, -72, -116, -184, -240, -273, -294, -299, -292, -290, -285, -285, -285, -271, -252, -248, -250, -240, -226, -226, -222, -210, -210, -219, -226, -208, -191, -215, -231, -215, -208, -215, -208, -198, -203, -208, -191, -189, -201, -196, -189, -198])
('ECG', 1763927143565673844, [-203, -194, -187, -182, -182, -189, -194, -191, -191, -184, -170, -163, -173, -175, -168, -177, -187, -175, -168, -168, -161, -152, -149, -159, -170, -177, -180, -184, -182, -191, -255, -292, -39, 570, 1179, 1059, -131, -938, -414, -44, -292, -252, -107, -182, -198, -121, -124, -149, -124, -98, -91, -81, -77, -67, -46, -21, -7, 7, 21, 30, 28, 32, 37, 23, 4, -28, -88, -133, -159, -208, -259, -280, -287])
('ECG', 1763927144127205044, [-294, -304, -311, -297, -271, -262, -262, -255, -240, -240, -248, -238, -222, -217, -210, -210, -226, -238, -231, -226, -226, -196, -180, -205, -212, -201, -205, -217, -219, -217, -205, -203, -205, -203, -191, -187, -191, -187, -191, -208, -205, -187, -187, -194, -184, -182, -194, -177, -149, -175, -212, -191, -175, -194, -187, -208, -313, -271, 189, 879, 1240, 524, -741, -811, -142, -152, -306, -161, -145, -203, -152, -131, -159])
('ECG', 1763927144688766762, [-142, -109, -102, -112, -98, -65, -51, -46, -18, 9, 16, 30, 46, 42, 35, 28, -9, -46, -53, -116, -224, -238, -208, -255, -290, -278, -299, -325, -301, -276, -264, -240, -219, -205, -201, -203, -198, -189, -187, -189, -187, -166, -156, -170, -175, -168, -177, -187, -182, -170, -175, -191, -191, -182, -180, -184, -189, -182, -170, -170, -180, -184, -177, -170, -173, -175, -175, -175, -156, -145, -159, -163, -170])
('ECG', 1763927145250328478, [-189, -189, -173, -177, -189, -215, -252, -126, 322, 868, 949, 114, -744, -491, -46, -210, -280, -135, -149, -198, -156, -131, -138, -128, -119, -112, -88, -70, -65, -53, -30, -11, -2, 7, 23, 35, 28, 16, 11, 7, -30, -93, -140, -170, -217, -257, -269, -276, -280, -287, -292, -287, -276, -262, -248, -243, -238, -229, -222, -224, -219, -212, -205, -205, -210, -208, -201, -205, -208, -205, -201, -201, -198])
('ECG', 1763927145811859680, [-198, -203, -208, -196, -180, -196, -205, -184, -180, -196, -194, -180, -170, -170, -173, -173, -175, -173, -161, -147, -156, -168, -161, -166, -184, -182, -161, -161, -177, -191, -240, -248, 16, 545, 975, 722, -273, -751, -259, -51, -276, -222, -109, -175, -187, -133, -128, -131, -107, -93, -88, -84, -74, -58, -35, -21, -14, 4, 25, 32, 35, 35, 21, 4, -2, -28, -95, -156, -194, -224, -250, -264, -269])
('ECG', 1763927146373421398, [-269, -266, -271, -271, -257, -248, -233, -219, -217, -208, -203, -203, -194, -194, -212, -208, -194, -191, -196, -194, -184, -191, -201, -189, -175, -180, -189, -180, -170, -177, -177, -175, -170, -163, -161, -163, -166, -177, -184, -180, -170, -152, -135, -133, -140, -138, -140, -159, -177, -180, -173, -159, -159, -210, -269, -133, 332, 905, 1036, 191, -760, -535, -44, -191, -269, -119, -131, -173, -131, -119, -126, -100, -77])
('ECG', 1763927146934952598, [-86, -81, -49, -32, -35, -18, 9, 21, 30, 49, 51, 46, 53, 44, 18, -14, -67, -133, -177, -210, -233, -250, -266, -271, -269, -266, -259, -257, -259, -245, -226, -215, -212, -210, -208, -196, -191, -194, -194, -194, -198, -194, -187, -194, -198, -184, -180, -189, -194, -191, -189, -184, -184, -184, -173, -166, -170, -180, -177, -170, -170, -173, -173, -175, -170, -156, -159, -156, -140, -140, -147, -131, -133])
('ECG', 1763927147496504142, [-173, -189, -163, -152, -159, -166, -201, -238, -95, 357, 905, 994, 154, -697, -435, -25, -208, -262, -114, -142, -194, -135, -109, -128, -121, -105, -93, -79, -72, -63, -35, -14, -2, 14, 23, 30, 44, 51, 39, 23, 14, -11, -67, -126, -175, -215, -248, -273, -280, -271, -264, -264, -262, -252, -243, -238, -238, -229, -210, -210, -212, -205, -198, -194, -191, -198, -196, -189, -194, -191, -187, -196, -196])
('ECG', 1763927148058045516, [-182, -189, -205, -198, -187, -189, -189, -180, -168, -168, -173, -173, -170, -170, -170, -168, -170, -173, -161, -156, -166, -170, -154, -131, -133, -149, -135, -133, -166, -182, -161, -149, -161, -170, -201, -238, -84, 388, 931, 975, 93, -755, -451, -23, -215, -259, -100, -131, -177, -138, -121, -109, -88, -91, -91, -67, -53, -46, -30, -14, 7, 23, 35, 53, 60, 51, 39, 35, 14, -21, -65, -121, -170])
('ECG', 1763927148619607232, [-198, -224, -259, -276, -273, -273, -273, -271, -259, -240, -231, -226, -215, -212, -215, -208, -196, -201, -205, -189, -180, -191, -198, -196, -191, -182, -189, -205, -198, -180, -184, -196, -189, -180, -180, -180, -182, -184, -180, -177, -173, -168, -170, -175, -166, -161, -166, -166, -163, -173, -168, -156, -163, -163, -147, -133, -138, -145, -135, -135, -166, -180, -166, -159, -163, -163, -210, -269, -100, 421, 1010, 1059, 105])
('ECG', 1763927149181138434, [-790, -456, -23, -233, -273, -116, -149, -189, -135, -126, -135, -109, -98, -102, -84, -63, -56, -49, -28, -9, 4, 18, 30, 35, 37, 28, 7, -11, -35, -79, -135, -184, -224, -248, -262, -266, -271, -278, -276, -269, -259, -245, -238, -240, -231, -217, -210, -205, -201, -208, -208, -201, -196, -196, -196, -189, -187, -191, -194, -191, -187, -182, -191, -194, -180, -180, -184, -180, -180, -187, -189, -177, -168])
('ECG', 1763927149742679806, [-170, -170, -163, -163, -170, -173, -166, -159, -166, -170, -161, -161, -168, -161, -145, -135, -133, -135, -145, -156, -159, -159, -161, -163, -173, -210, -262, -161, 283, 903, 1160, 430, -641, -587, -46, -154, -297, -140, -116, -180, -152, -131, -142, -112, -88, -95, -88, -70, -63, -46, -21, -14, -2, 21, 35, 35, 39, 39, 25, 9, -23, -72, -124, -168, -203, -233, -259, -276, -278, -276, -273, -271, -262])
('ECG', 1763927150304231352, [-255, -252, -245, -226, -219, -226, -222, -203, -187, -187, -191, -189, -184, -191, -194, -189, -182, -182, -187, -196, -194, -177, -173, -173, -170, -173, -177, -168, -166, -168, -168, -168, -161, -154, -161, -170, -173, -168, -163, -156, -152, -154, -156, -154, -159, -166, -156, -152, -163, -170, -161, -152, -140, -128, -131, -138, -140, -154, -168, -161, -156, -156, -156, -175, -238, -217, 116, 704, 1090, 641, -409, -655, -135])
('ECG', 1763927150865793070, [-86, -285, -180, -119, -194, -177, -128, -142, -140, -102, -91, -88, -65, -51, -46, -25, -7, -4, 4, 30, 49, 44, 32, 25, 18, -4, -51, -102, -147, -191, -222, -233, -255, -271, -264, -262, -262, -250, -245, -243, -226, -210, -215, -219, -205, -194, -201, -194, -180, -182, -189, -189, -189, -194, -191, -175, -173, -187, -189, -187, -177, -170, -177, -184, -184, -184, -180, -168, -166, -168, -175, -170, -161])
('ECG', 1763927151427324270, [-163, -170, -168, -159, -159, -168, -163, -149, -154, -166, -159, -149, -142, -128, -116, -114, -124, -140, -152, -166, -166, -154, -152, -168, -212, -243, -28, 505, 1006, 851, -131, -739, -308, -37, -243, -222, -109, -152, -152, -100, -112, -116, -86, -86, -93, -67, -44, -39, -28, -14, 4, 23, 30, 35, 46, 42, 30, 18, 0, -25, -58, -112, -175, -212, -229, -248, -259, -266, -264, -252, -248, -233, -210])
('ECG', 1763927151988885986, [-203, -212, -210, -194, -187, -191, -189, -180, -175, -170, -168, -177, -189, -187, -170, -168, -180, -175, -166, -175, -180, -173, -170, -170, -166, -163, -170, -173, -170, -166, -154, -149, -152, -161, -156, -145, -142, -152, -161, -163, -166, -161, -145, -133, -133, -131, -126, -128, -147, -163, -156, -152, -156, -156, -182, -243, -163, 262, 846, 1027, 266, -706, -577, -63, -159, -255, -105, -100, -163, -126, -88, -95, -93])
('ECG', 1763927152550417188, [-77, -65, -53, -39, -25, -14, -2, 9, 25, 44, 58, 58, 53, 49, 30, 11, -11, -49, -102, -152, -191, -217, -238, -257, -259, -252, -257, -255, -238, -226, -224, -219, -208, -201, -201, -203, -196, -184, -184, -189, -184, -187, -194, -191, -191, -189, -180, -187, -191, -180, -180, -187, -175, -173, -191, -184, -166, -177, -182, -166, -161, -175, -175, -161, -156, -163, -173, -173, -168, -156, -149, -145, -145])
('ECG', 1763927153111958560, [-149, -147, -131, -140, -170, -180, -168, -163, -166, -184, -236, -194, 163, 736, 1048, 505, -510, -629, -102, -107, -285, -166, -109, -166, -149, -121, -131, -121, -98, -91, -81, -60, -44, -37, -25, -4, 9, 18, 30, 42, 44, 39, 30, 21, -4, -49, -109, -168, -203, -222, -248, -257, -248, -255, -264, -257, -240, -226, -222, -219, -208, -194, -194, -201, -196, -187, -187, -187, -180, -180, -187, -184, -177])
('ECG', 1763927153673494846, [-175, -180, -180, -173, -173, -180, -180, -170, -170, -170, -161, -154, -159, -163, -161, -163, -163, -156, -149, -152, -156, -156, -152, -149, -147, -147, -152, -149, -140, -138, -135, -124, -119, -128, -140, -145, -152, -149, -140, -149, -191, -240, -124, 329, 900, 1022, 210, -701, -500, -28, -159, -245, -107, -109, -159, -124, -95, -100, -88, -74, -72, -56, -30, -25, -21, -4, 14, 30, 39, 51, 60, 58, 42])
('ECG', 1763927154235041306, [35, 30, 0, -53, -105, -149, -187, -217, -238, -248, -252, -259, -252, -233, -222, -224, -217, -201, -201, -198, -177, -173, -182, -182, -175, -166, -163, -163, -168, -180, -177, -168, -166, -170, -170, -175, -173, -161, -161, -166, -159, -152, -156, -156, -161, -161, -152, -149, -149, -154, -166, -166, -145, -135, -131, -131, -133, -133, -135, -145, -147, -152, -154, -149, -159, -208, -236, -14, 517, 1022, 865, -161, -790])
('ECG', 1763927154796597936, [-308, -14, -243, -212, -86, -147, -166, -112, -107, -100, -77, -79, -72, -53, -49, -42, -14, 9, 23, 32, 44, 56, 53, 46, 39, 25, 7, -28, -86, -138, -175, -210, -231, -240, -262, -269, -252, -243, -245, -238, -233, -231, -212, -196, -198, -201, -191, -182, -189, -182, -170, -175, -177, -175, -177, -170, -170, -175, -173, -170, -175, -173, -175, -177, -168, -159, -163, -170, -168, -161, -163, -163, -161])
('ECG', 1763927155358134222, [-161, -159, -149, -154, -166, -152, -138, -152, -163, -154, -138, -133, -145, -145, -140, -147, -147, -131, -119, -126, -131, -119, -107, -116, -145, -149, -131, -131, -149, -168, -208, -208, 63, 615, 1062, 772, -259, -699, -201, -44, -271, -194, -88, -166, -173, -109, -114, -116, -79, -77, -100, -86, -56, -44, -39, -23, 0, 16, 25, 28, 37, 42, 32, 23, -2, -51, -91, -124, -184, -238, -248, -240, -245])
('ECG', 1763927155919670510, [-248, -257, -266, -257, -236, -240, -240, -198, -166, -189, -217, -210, -198, -201, -203, -184, -163, -177, -196, -187, -180, -177, -168, -182, -191, -175, -177, -189, -187, -184, -177, -166, -170, -177, -168, -163, -163, -166, -173, -180, -177, -166, -154, -145, -152, -145, -131, -154, -191, -180, -159, -173, -177, -187, -240, -226, 98, 678, 1057, 603, -458, -725, -187, -91, -276, -175, -112, -189, -173, -119, -128, -133, -112])
('ECG', 1763927156481227142, [-102, -98, -77, -58, -46, -35, -23, -7, 23, 37, 32, 39, 46, 28, -7, -37, -58, -107, -187, -233, -243, -257, -276, -271, -259, -264, -269, -257, -243, -243, -238, -231, -226, -212, -198, -196, -198, -191, -180, -180, -182, -180, -180, -180, -177, -184, -196, -189, -173, -166, -163, -168, -182, -177, -161, -163, -168, -161, -154, -154, -170, -166, -147, -145, -145, -145, -154, -159, -156, -149, -147, -161, -194])
('ECG', 1763927157042758342, [-236, -175, 210, 818, 1116, 444, -659, -692, -119, -161, -297, -138, -105, -145, -86, -74, -121, -116, -74, -49, -37, -25, -18, -23, -11, 30, 58, 51, 51, 63, 51, 30, 11, -2, 7, -9, -93, -177, -245, -294, -285, -231, -229, -285, -285, -243, -271, -320, -280, -191, -177, -229, -229, -187, -177, -187, -184, -205, -229, -212, -205, -194, -133, -116, -180, -219, -198, -184, -184, -154, -154, -180, -163])
('ECG', 1763927157604309886, [-156, -149, -121, -142, -177, -147, -102, -121, -182, -189, -131, -124, -168, -184, -182, -215, -187, 131, 722, 1125, 610, -556, -809, -196, -79, -240, -140, -109, -175, -147, -128, -140, -88, -53, -77, -67, -25, -23, -42, -32, 9, 60, 56, 35, 56, 63, 44, 46, 35, -2, -56, -140, -196, -194, -219, -285, -292, -255, -257, -262, -236, -233, -259, -255, -215, -201, -215, -196, -177, -201, -184, -147, -177])
('ECG', 1763927158165851260, [-215, -189, -156, -159, -184, -187, -180, -180, -159, -154, -184, -215, -184, -114, -142, -219, -187, -140, -154, -168, -163, -152, -149, -149, -128, -124, -138, -145, -142, -138, -145, -159, -147, -128, -147, -196, -238, -74, 430, 980, 954, -2, -797, -411, -4, -224, -252, -95, -133, -191, -138, -91, -105, -112, -65, -39, -67, -67, -32, -11, 14, 28, 11, 16, 49, 63, 53, 65, 60, -2, -60, -84, -140])
('ECG', 1763927158727382460, [-198, -208, -229, -271, -264, -255, -290, -294, -259, -252, -257, -243, -224, -212, -208, -212, -212, -203, -198, -198, -191, -180, -182, -189, -191, -191, -189, -189, -189, -187, -182, -177, -173, -177, -182, -168, -154, -168, -187, -187, -180, -175, -170, -180, -191, -177, -156, -147, -131, -114, -116, -140, -159, -159, -154, -149, -135, -135, -154, -205, -219, 67, 725, 1321, 1008, -322, -928, -276, -21, -266, -159, -39, -131])
('ECG', 1763927159288918746, [-124, -63, -86, -91, -51, -42, -42, -14, 16, 30, 39, 51, 65, 84, 100, 102, 102, 98, 86, 65, 30, -11, -67, -138, -191, -219, -243, -264, -266, -264, -269, -278, -276, -257, -238, -238, -248, -236, -205, -191, -196, -187, -173, -175, -182, -180, -182, -187, -189, -189, -189, -191, -191, -187, -177, -173, -170, -168, -184, -198, -180, -170, -182, -177, -166, -168, -149, -128, -142, -149, -131, -140, -168])
('ECG', 1763927159850475378, [-168, -163, -182, -180, -145, -182, -280, -138, 474, 1258, 1401, 229, -975, -612, -11, -238, -304, -98, -119, -159, -88, -88, -109, -67, -60, -77, -39, -11, -23, -18, 21, 56, 65, 81, 95, 100, 102, 77, 37, 14, -23, -93, -166, -212, -233, -233, -217, -217, -236, -233, -224, -229, -236, -231, -219, -231, -231, -208, -187, -170, -175, -191, -191, -191, -205, -198, -173, -187, -229, -229, -224, -257, -269])
('ECG', 1763927160412021836, [-236, -201, -177, -182, -196, -203, -226, -236, -180, -142, -182, -187, -138, -142, -173, -170, -154, -147, -166, -184, -147, -126, -161, -180, -196, -269, -114, 528, 1251, 1211, -30, -1038, -531, -9, -248, -250, -74, -142, -180, -107, -107, -140, -128, -112, -91, -53, -39, -44, -30, -14, 0, 42, 77, 72, 58, 65, 70, 46, 11, -35, -109, -175, -205, -236, -262, -276, -290, -276, -245, -240, -248, -250, -245])
('ECG', 1763927160973568296, [-231, -222, -219, -219, -217, -210, -196, -182, -180, -182, -177, -170, -175, -177, -173, -175, -180, -180, -168, -159, -161, -163, -161, -163, -173, -170, -156, -161, -175, -166, -154, -156, -154, -152, -154, -152, -135, -126, -138, -152, -147, -147, -163, -170, -156, -152, -173, -255, -266, 109, 875, 1485, 963, -545, -999, -238, -79, -325, -184, -102, -184, -142, -91, -116, -109, -84, -81, -67, -49, -37, -23, -14, 4])
('ECG', 1763927161535124926, [32, 56, 65, 70, 74, 65, 42, 18, -16, -70, -124, -173, -222, -262, -271, -278, -292, -292, -280, -290, -294, -283, -264, -255, -243, -226, -212, -205, -208, -208, -194, -180, -184, -194, -191, -182, -182, -180, -166, -168, -187, -180, -168, -180, -187, -173, -168, -175, -175, -159, -149, -163, -175, -159, -149, -173, -184, -159, -145, -154, -159, -145, -131, -138, -149, -147, -149, -152, -142, -138, -147, -149, -149])
('ECG', 1763927162096661212, [-149, -121, -105, -128, -124, -102, -119, -142, -147, -156, -149, -128, -147, -229, -276, -11, 664, 1371, 1296, 37, -905, -423, -9, -271, -266, -109, -168, -194, -126, -124, -140, -112, -93, -86, -70, -49, -37, -32, -21, 4, 32, 51, 56, 53, 53, 56, 46, 23, -21, -77, -135, -180, -215, -250, -278, -292, -294, -283, -273, -280, -273, -245, -240, -245, -233, -222, -210, -196, -210, -219, -196, -184, -198])
('ECG', 1763927162658192414, [-198, -187, -184, -189, -184, -184, -194, -201, -196, -173, -168, -184, -175, -161, -168, -173, -173, -175, -163, -145, -149, -161, -152, -149, -154, -154, -159, -163, -149, -142, -145, -142, -145, -140, -140, -149, -147, -145, -159, -152, -116, -105, -116, -119, -105, -124, -170, -177, -152, -152, -161, -175, -238, -208, 219, 959, 1471, 853, -596, -891, -154, -98, -334, -161, -79, -180, -159, -105, -114, -105, -74, -67, -72])
('ECG', 1763927163219733786, [-49, -25, -23, -11, 16, 37, 51, 74, 93, 95, 88, 81, 67, 35, -7, -65, -133, -194, -222, -240, -269, -280, -266, -266, -280, -266, -245, -252, -255, -231, -222, -222, -203, -175, -168, -182, -184, -173, -175, -180, -175, -173, -168, -168, -180, -177, -156, -161, -182, -173, -154, -156, -156, -154, -161, -168, -161, -152, -154, -159, -154, -149, -149, -154, -152, -147, -152, -154, -140, -135, -147, -133, -121])
('ECG', 1763927163781285332, [-131, -138, -142, -149, -152, -154, -147, -163, -252, -266, 105, 846, 1469, 1022, -463, -999, -271, -74, -320, -187, -91, -180, -147, -84, -114, -119, -77, -63, -58, -39, -28, -14, 11, 32, 37, 53, 88, 100, 95, 93, 91, 67, 25, -21, -81, -154, -212, -245, -271, -287, -276, -271, -278, -273, -269, -266, -259, -255, -240, -224, -217, -222, -212, -187, -180, -191, -191, -180, -170, -166, -168, -180, -184])
('ECG', 1763927164342816532, [-175, -173, -177, -177, -170, -173, -180, -168, -156, -159, -166, -161, -152, -161, -177, -170, -152, -152, -163, -161, -152, -152, -154, -147, -140, -149, -161, -161, -152, -149, -149, -133, -126, -131, -126, -131, -152, -149, -142, -156, -149, -140, -208, -290, -105, 500, 1247, 1422, 334, -865, -563, 18, -210, -311, -121, -149, -205, -138, -119, -128, -91, -79, -88, -67, -42, -39, -30, -9, 4, 25, 58, 77, 86])
('ECG', 1763927164904347732, [91, 79, 70, 58, 16, -44, -107, -168, -215, -243, -257, -264, -276, -280, -262, -243, -250, -248, -226, -224, -229, -210, -196, -196, -194, -194, -201, -191, -173, -177, -184, -173, -163, -173, -182, -170, -163, -175, -182, -180, -173, -159, -152, -161, -168, -166, -163, -161, -156, -159, -163, -161, -152, -152, -154, -154, -152, -152, -149, -154, -159, -156, -152, -152, -152, -156, -161, -159, -152, -152, -161, -156, -138])
('ECG', 1763927165465878932, [-138, -138, -124, -140, -177, -166, -140, -149, -170, -210, -278, -177, 318, 1055, 1434, 643, -673, -711, -60, -142, -336, -173, -128, -189, -147, -121, -133, -109, -88, -93, -86, -67, -51, -32, -14, 0, 16, 42, 67, 86, 91, 77, 51, 35, 16, -23, -81, -149, -201, -224, -245, -269, -276, -276, -276, -269, -262, -255, -243, -236, -229, -215, -205, -205, -208, -198, -191, -194, -196, -187, -170, -175, -189])
('ECG', 1763927166027440650, [-187, -180, -191, -194, -170, -168, -182, -175, -170, -175, -163, -163, -184, -180, -166, -173, -173, -154, -152, -161, -154, -156, -170, -159, -140, -156, -170, -152, -142, -149, -154, -147, -145, -149, -149, -140, -142, -152, -149, -133, -121, -116, -119, -140, -159, -154, -145, -152, -161, -177, -236, -248, 51, 713, 1307, 1024, -240, -863, -278, -39, -306, -215, -79, -163, -163, -100, -114, -119, -93, -93, -88, -63, -44])
('ECG', 1763927166588971850, [-28, -4, 14, 28, 39, 56, 79, 91, 95, 86, 60, 35, 0, -60, -124, -170, -198, -212, -233, -264, -271, -259, -250, -245, -240, -231, -217, -205, -203, -198, -187, -182, -182, -175, -180, -182, -170, -168, -170, -168, -166, -173, -182, -177, -170, -170, -170, -166, -166, -170, -170, -166, -152, -149, -163, -168, -156, -147, -149, -149, -152, -156, -147, -140, -152, -152, -145, -147, -147, -145, -149, -159, -154])
('ECG', 1763927167150503050, [-138, -119, -109, -107, -105, -105, -128, -149, -135, -131, -145, -140, -156, -226, -175, 233, 900, 1342, 762, -538, -786, -112, -58, -278, -145, -84, -161, -119, -79, -105, -81, -42, -56, -56, -14, 7, 11, 30, 39, 46, 70, 95, 105, 109, 109, 100, 81, 44, -9, -63, -109, -156, -203, -231, -248, -262, -262, -252, -250, -243, -226, -219, -219, -208, -191, -184, -184, -182, -175, -168, -168, -175, -177])
('ECG', 1763927167712054594, [-163, -147, -161, -175, -170, -170, -168, -159, -154, -159, -152, -147, -156, -161, -147, -147, -159, -163, -156, -147, -135, -135, -152, -154, -145, -140, -145, -152, -154, -135, -121, -119, -124, -121, -116, -128, -152, -145, -124, -128, -152, -177, -240, -224, 142, 832, 1361, 875, -486, -896, -224, -86, -290, -142, -67, -154, -121, -65, -91, -81, -39, -42, -46, -21, -7, 0, 32, 67, 77, 81, 95, 109, 109])
('ECG', 1763927168273565450, [98, 88, 81, 53, -4, -74, -133, -175, -210, -240, -259, -264, -262, -255, -255, -250, -236, -224, -215, -205, -203, -208, -205, -189, -170, -163, -175, -184, -180, -184, -198, -194, -180, -177, -189, -182, -166, -177, -189, -173, -168, -184, -168, -147, -166, -180, -163, -156, -168, -175, -170, -161, -149, -135, -124, -126, -133, -140, -159, -166, -154, -152, -163, -191, -252, -215, 182, 886, 1359, 729, -645, -879, -163])
('ECG', 1763927168835127166, [-109, -304, -138, -91, -175, -128, -91, -119, -95, -60, -67, -60, -30, -14, 0, 18, 35, 49, 65, 79, 88, 86, 79, 70, 49, 16, -42, -121, -177, -210, -248, -276, -280, -280, -285, -276, -257, -250, -245, -229, -219, -222, -226, -217, -194, -182, -196, -191, -170, -170, -177, -180, -184, -187, -187, -184, -175, -180, -189, -182, -163, -159, -177, -182, -161, -152, -175, -184, -156, -152, -175, -173, -152])
('ECG', 1763927169396658368, [-159, -175, -166, -145, -128, -128, -138, -135, -128, -147, -163, -149, -140, -142, -142, -170, -243, -173, 285, 980, 1305, 519, -711, -692, -51, -128, -287, -131, -119, -182, -128, -114, -145, -126, -81, -56, -51, -51, -30, -11, 0, 11, 21, 49, 79, 74, 58, 58, 35, 4, 0, -28, -109, -177, -215, -255, -287, -287, -276, -290, -297, -257, -231, -250, -240, -219, -222, -224, -215, -201, -189, -191, -208])
('ECG', 1763927169958189568, [-198, -166, -156, -170, -173, -170, -187, -203, -196, -177, -166, -156, -154, -175, -182, -159, -149, -159, -159, -163, -177, -175, -156, -159, -161, -135, -119, -133, -142, -138, -135, -147, -152, -142, -142, -133, -133, -191, -252, -109, 374, 1024, 1247, 297, -877, -634, -9, -168, -269, -93, -116, -184, -121, -81, -93, -79, -56, -44, -39, -32, -18, 4, 21, 39, 74, 88, 88, 95, 86, 67, 67, 49, -7])
('ECG', 1763927170519736026, [-60, -107, -166, -212, -243, -266, -283, -290, -269, -245, -255, -257, -236, -229, -226, -212, -196, -182, -184, -194, -189, -175, -182, -182, -152, -138, -156, -163, -149, -149, -163, -161, -147, -145, -147, -142, -138, -140, -126, -119, -133, -131, -105, -114, -138, -138, -128, -112, -91, -91, -98, -95, -107, -133, -131, -107, -107, -116, -133, -196, -245, -11, 612, 1286, 1256, 35, -947, -456, 2, -248, -229, -51, -114])
('ECG', 1763927171081282486, [-147, -84, -81, -81, -49, -44, -49, -28, -14, 0, 25, 39, 63, 105, 124, 105, 105, 116, 102, 91, 74, 23, -46, -105, -170, -219, -229, -245, -273, -264, -238, -240, -238, -219, -215, -215, -196, -201, -222, -189, -149, -168, -175, -168, -170, -166, -163, -180, -177, -156, -161, -163, -138, -131, -147, -170, -180, -166, -152, -140, -119, -138, -177, -173, -133, -107, -100, -102, -140, -170, -140, -114, -121])
('ECG', 1763927171642813686, [-128, -152, -224, -255, 56, 779, 1441, 1087, -369, -996, -280, -32, -280, -138, -25, -121, -102, -53, -60, -37, -21, -53, -39, 37, 49, -2, 0, 65, 105, 74, 84, 138, 114, 65, 65, 44, -14, -72, -131, -194, -248, -269, -259, -266, -278, -259, -252, -269, -257, -240, -236, -222, -217, -205, -189, -196, -203, -191, -182, -182, -184, -177, -159, -163, -191, -194, -173, -168, -177, -184, -182, -175, -180])
('ECG', 1763927172204344886, [-187, -177, -159, -163, -180, -170, -156, -161, -161, -163, -182, -175, -149, -154, -180, -177, -201, -276, -126, 498, 1202, 1111, -119, -1010, -484, -21, -238, -210, -53, -121, -147, -84, -81, -86, -63, -53, -44, -32, -25, -14, 9, 32, 49, 53, 56, 56, 49, 37, 18, -11, -44, -91, -149, -194, -229, -264, -280, -285, -280, -271, -264, -262, -250, -238, -233, -229, -224, -217, -212, -205, -191, -194, -208])
('ECG', 1763927172765876086, [-205, -198, -201, -208, -215, -203, -182, -191, -208, -196, -184, -189, -196, -196, -191, -184, -177, -173, -168, -175, -180, -170, -161, -168, -182, -180, -168, -163, -166, -166, -159, -149, -142, -140, -145, -142, -156, -180, -180, -166, -156, -142, -159, -250, -243, 182, 933, 1380, 659, -748, -903, -128, -79, -283, -128, -81, -166, -124, -77, -98, -84, -53, -56, -49, -16, 0, -7, 0, 18, 28, 30, 35, 28])
('ECG', 1763927173327407286, [23, 23, 7, -18, -44, -91, -142, -182, -219, -236, -236, -252, -269, -269, -250, -231, -231, -229, -222, -217, -215, -212, -210, -212, -215, -212, -208, -203, -196, -187, -191, -198, -196, -187, -191, -198, -198, -194, -194, -189, -180, -166, -166, -177, -175, -163, -163, -170, -166, -161, -163, -163, -161, -166, -163, -147, -135, -142, -149, -147, -145, -140, -140, -145, -142, -138, -145, -156, -145, -119, -114, -114, -105])
('ECG', 1763927173888938486, [-107, -126, -145, -142, -131, -138, -152, -175, -248, -201, 276, 1052, 1466, 706, -648, -746, -53, -109, -334, -159, -105, -189, -147, -102, -121, -102, -77, -77, -67, -60, -63, -44, -11, 0, 2, 23, 35, 32, 28, 21, 4, -14, -35, -70, -124, -177, -205, -219, -243, -257, -259, -257, -257, -252, -240, -229, -224, -226, -219, -205, -196, -182, -177, -189, -184, -175, -182, -182, -170, -173, -173, -168, -175])
('ECG', 1763927174450469686, [-173, -166, -170, -177, -170, -166, -175, -177, -170, -168, -168, -161, -142, -128, -138, -152, -147, -138, -142, -149, -145, -140, -140, -140, -128, -119, -126, -131, -128, -133, -147, -145, -124, -116, -126, -119, -98, -95, -119, -138, -135, -126, -126, -133, -163, -236, -219, 163, 870, 1389, 903, -421, -811, -154, -37, -292, -180, -86, -168, -156, -100, -107, -107, -81, -70, -67, -46, -16, -14, -23, -2, 30, 42])
('ECG', 1763927175012026316, [44, 49, 51, 51, 51, 37, 2, -39, -91, -147, -184, -212, -238, -252, -257, -262, -252, -229, -226, -231, -222, -215, -215, -208, -194, -177, -175, -184, -173, -163, -170, -170, -152, -140, -147, -156, -154, -154, -156, -159, -156, -161, -159, -152, -152, -152, -149, -152, -147, -138, -145, -147, -142, -142, -145, -147, -142, -138, -140, -138, -131, -128, -138, -145, -133, -128, -133, -131, -135, -142, -140, -131, -128])
('ECG', 1763927175573532086, [-133, -121, -107, -112, -109, -102, -116, -128, -131, -131, -121, -121, -154, -222, -198, 187, 882, 1359, 800, -503, -774, -100, -42, -280, -159, -93, -159, -124, -86, -105, -100, -77, -63, -39, -23, -21, -7, 16, 28, 37, 51, 70, 81, 79, 72, 67, 58, 25, -23, -70, -124, -173, -196, -215, -240, -243, -238, -245, -236, -217, -217, -215, -201, -198, -194, -175, -168, -175, -175, -168, -161, -156, -159])
('ECG', 1763927176135068372, [-159, -161, -168, -168, -152, -149, -161, -161, -152, -152, -156, -156, -145, -138, -145, -147, -147, -147, -138, -135, -138, -135, -135, -140, -135, -128, -131, -131, -138, -149, -138, -119, -116, -124, -133, -133, -131, -135, -138, -131, -121, -126, -128, -119, -114, -107, -98, -100, -105, -114, -126, -131, -135, -133, -124, -126, -161, -226, -203, 180, 868, 1321, 748, -519, -760, -105, -56, -278, -149, -86, -154, -121, -91])
('ECG', 1763927176696604658, [-107, -86, -56, -53, -49, -25, -9, -11, -4, 23, 51, 74, 86, 93, 93, 86, 72, 51, 21, -11, -58, -114, -161, -194, -219, -233, -229, -224, -238, -245, -236, -219, -212, -205, -196, -189, -180, -175, -170, -166, -163, -168, -168, -163, -163, -170, -168, -161, -166, -168, -156, -159, -166, -159, -156, -166, -166, -154, -152, -152, -142, -147, -156, -149, -142, -152, -156, -145, -142, -145, -133, -121, -138])
('ECG', 1763927177258140944, [-156, -149, -138, -138, -133, -124, -124, -124, -119, -102, -91, -107, -131, -133, -124, -121, -133, -135, -140, -203, -189, 212, 921, 1366, 739, -591, -828, -140, -81, -273, -107, -46, -138, -100, -44, -72, -72, -32, -21, -28, -16, 9, 28, 44, 65, 86, 100, 107, 112, 112, 102, 81, 56, 37, 0, -63, -133, -180, -205, -231, -255, -259, -257, -262, -269, -257, -229, -215, -210, -194, -189, -194, -184])
('ECG', 1763927177819656886, [-173, -175, -184, -182, -168, -168, -173, -168, -163, -173, -177, -168, -161, -168, -170, -161, -166, -173, -168, -163, -156, -156, -163, -168, -166, -166, -163, -152, -149, -159, -161, -156, -149, -147, -152, -159, -154, -133, -121, -128, -133, -131, -140, -161, -161, -145, -142, -159, -205, -269, -93, 512, 1202, 1216, 70, -942, -512, -4, -226, -252, -95, -145, -161, -88, -81, -86, -60, -56, -58, -37, -9, 4, 14])
('ECG', 1763927178381188086, [30, 46, 70, 95, 105, 98, 95, 91, 67, 35, -7, -70, -135, -175, -203, -243, -276, -273, -264, -271, -266, -250, -248, -245, -229, -215, -210, -212, -210, -203, -194, -191, -182, -175, -182, -177, -166, -175, -180, -170, -175, -187, -182, -173, -170, -175, -170, -161, -163, -175, -168, -161, -166, -173, -175, -161, -142, -147, -154, -140, -126, -131, -152, -159, -149, -142, -154, -161, -147, -135, -135, -128, -114])
('ECG', 1763927178942719286, [-119, -133, -140, -147, -154, -147, -138, -147, -196, -264, -124, 444, 1167, 1354, 341, -853, -598, 21, -175, -290, -95, -105, -170, -107, -91, -116, -88, -58, -60, -51, -37, -25, -4, 14, 25, 51, 74, 84, 86, 88, 88, 65, 32, 2, -42, -112, -180, -212, -226, -233, -248, -273, -273, -257, -257, -259, -240, -233, -224, -201, -194, -201, -196, -189, -187, -187, -198, -194, -166, -161, -182, -182, -161])
('ECG', 1763927179504250486, [-170, -196, -187, -161, -168, -184, -170, -145, -152, -166, -154, -142, -154, -168, -163, -156, -161, -163, -156, -156, -161, -154, -145, -152, -154, -149, -152, -159, -156, -145, -133, -131, -131, -124, -119, -142, -163, -145, -133, -149, -154, -163, -226, -142, 350, 1036, 1265, 395, -751, -627, -37, -152, -273, -114, -105, -168, -135, -102, -102, -91, -81, -79, -65, -46, -35, -21, -2, 16, 32, 53, 72, 84, 81])
('ECG', 1763927180065781686, [65, 39, 21, -9, -63, -124, -168, -194, -215, -243, -276, -271, -248, -252, -252, -231, -215, -205, -198, -196, -191, -180, -175, -187, -196, -187, -177, -173, -156, -147, -154, -161, -163, -154, -138, -145, -161, -166, -154, -147, -154, -161, -163, -163, -156, -154, -159, -156, -154, -159, -159, -156, -159, -161, -163, -163, -159, -163, -168, -156, -145, -147, -140, -131, -154, -166, -145, -128, -133, -128, -119, -126, -140])
('ECG', 1763927180627312886, [-142, -145, -156, -154, -135, -147, -212, -252, -32, 507, 1003, 893, -30, -690, -327, -32, -222, -208, -93, -145, -149, -84, -93, -116, -91, -67, -56, -44, -30, -16, -7, 7, 30, 49, 60, 74, 81, 74, 60, 42, 18, -9, -56, -112, -156, -184, -212, -231, -236, -233, -236, -240, -233, -219, -210, -201, -194, -194, -187, -170, -166, -170, -170, -173, -170, -163, -163, -168, -166, -161, -166, -175, -173])
('ECG', 1763927181188844086, [-163, -159, -168, -168, -159, -156, -147, -138, -154, -163, -147, -138, -145, -140, -126, -131, -140, -138, -126, -121, -131, -133, -119, -119, -128, -124, -114, -121, -126, -119, -107, -98, -105, -112, -100, -107, -133, -135, -124, -124, -131, -149, -198, -205, 49, 580, 1020, 781, -201, -711, -259, -30, -208, -147, -63, -131, -114, -58, -86, -91, -46, -35, -42, -39, -30, -7, 21, 30, 42, 67, 86, 98, 107])
('ECG', 1763927181750375286, [105, 93, 79, 53, 9, -39, -86, -126, -161, -194, -219, -222, -212, -219, -224, -212, -205, -203, -189, -177, -166, -166, -170, -168, -161, -159, -159, -156, -152, -156, -159, -163, -175, -170, -145, -142, -163, -170, -156, -145, -140, -142, -156, -159, -154, -154, -147, -133, -126, -140, -154, -142, -124, -119, -124, -142, -152, -140, -119, -105, -102, -112, -114, -126, -142, -140, -121, -116, -133, -168, -217, -112, 332])
('ECG', 1763927182311906484, [914, 1066, 264, -711, -566, -77, -177, -224, -67, -81, -133, -84, -60, -70, -53, -39, -35, -23, -18, -11, 14, 30, 44, 70, 91, 105, 112, 100, 93, 88, 63, 18, -37, -102, -145, -166, -196, -229, -238, -233, -243, -245, -233, -226, -222, -208, -210, -215, -189, -163, -161, -159, -154, -161, -166, -154, -149, -149, -142, -140, -149, -145, -138, -154, -156, -138, -142, -149, -140, -145, -145, -133, -140])
('ECG', 1763927182873437686, [-149, -142, -135, -140, -147, -145, -128, -124, -131, -124, -109, -114, -128, -145, -156, -147, -128, -135, -154, -182, -238, -173, 233, 861, 1209, 563, -617, -725, -128, -126, -255, -112, -98, -163, -119, -79, -88, -77, -53, -49, -39, -18, -9, 0, 28, 56, 70, 86, 114, 133, 131, 116, 105, 79, 39, -25, -105, -163, -196, -226, -245, -252, -252, -252, -257, -259, -252, -243, -229, -217, -208, -196, -194])
('ECG', 1763927183434968886, [-201, -180, -159, -170, -177, -161, -168, -182, -161, -140, -149, -163, -163, -147, -133, -142, -170, -182, -163, -147, -149, -135, -112, -131, -175, -173, -138, -138, -159, -154, -128, -112, -112, -119, -133, -128, -121, -142, -147, -121, -133, -156, -156, -203, -262, -28, 620, 1293, 1228, 21, -900, -423, 4, -250, -278, -124, -138, -145, -88, -88, -105, -74, -44, -32, -30, -28, -23, 9, 46, 65, 79, 107, 131])
('ECG', 1763927183996484826, [135, 121, 98, 86, 65, 7, -70, -128, -168, -210, -243, -252, -264, -278, -271, -248, -238, -255, -266, -257, -240, -229, -217, -208, -194, -182, -175, -170, -173, -170, -154, -147, -161, -170, -163, -156, -154, -161, -168, -156, -152, -161, -166, -156, -152, -154, -152, -142, -140, -147, -145, -138, -138, -142, -147, -142, -138, -135, -131, -124, -126, -119, -95, -100, -138, -145, -128, -128, -135, -147, -219, -269, 18])
('ECG', 1763927184558021112, [722, 1429, 1291, -30, -914, -360, 14, -283, -252, -81, -152, -180, -112, -107, -116, -86, -67, -70, -51, -28, -18, 0, 25, 37, 65, 98, 107, 109, 121, 114, 86, 51, 4, -63, -145, -205, -236, -252, -276, -294, -292, -269, -255, -252, -236, -233, -243, -231, -212, -217, -215, -191, -189, -189, -175, -168, -173, -173, -168, -170, -173, -166, -161, -159, -161, -163, -168, -163, -156, -156, -159, -159, -149])
('ECG', 1763927185119531968, [-142, -145, -149, -154, -149, -142, -133, -131, -133, -131, -128, -133, -128, -121, -124, -126, -124, -124, -124, -124, -121, -112, -107, -121, -135, -131, -124, -126, -128, -116, -116, -126, -124, -116, -105, -91, -91, -88, -91, -102, -119, -131, -135, -131, -121, -124, -159, -243, -233, 152, 886, 1476, 1078, -287, -825, -187, -25, -306, -212, -107, -187, -173, -112, -126, -133, -88, -72, -84, -67, -37, -35, -25, 9])
('ECG', 1763927185681063168, [30, 35, 53, 86, 95, 81, 77, 86, 65, 4, -46, -93, -159, -210, -238, -250, -255, -255, -252, -243, -236, -233, -217, -205, -215, -208, -173, -159, -175, -173, -159, -159, -168, -168, -161, -159, -161, -159, -152, -149, -154, -156, -159, -161, -161, -163, -166, -163, -161, -156, -149, -149, -149, -147, -149, -145, -147, -163, -159, -145, -145, -147, -142, -140, -142, -138, -135, -145, -140, -126, -124, -131, -131])
('ECG', 1763927186242594368, [-133, -145, -149, -133, -109, -98, -105, -107, -91, -100, -128, -138, -147, -154, -135, -116, -156, -240, -201, 219, 945, 1457, 903, -474, -823, -142, -60, -299, -152, -67, -163, -142, -86, -98, -95, -70, -60, -51, -39, -23, -4, 4, 25, 58, 74, 98, 124, 128, 121, 109, 91, 65, 25, -42, -119, -168, -201, -231, -240, -240, -252, -252, -236, -229, -233, -233, -222, -208, -205, -198, -189, -184, -184])
('ECG', 1763927186804125568, [-175, -163, -166, -175, -168, -159, -177, -182, -159, -149, -161, -166, -156, -149, -147, -149, -154, -152, -140, -135, -140, -147, -145, -138, -138, -133, -124, -140, -145, -121, -121, -138, -126, -112, -126, -131, -121, -131, -147, -135, -109, -107, -119, -119, -98, -79, -93, -119, -131, -131, -140, -135, -116, -124, -166, -238, -212, 173, 882, 1413, 870, -538, -898, -187, -79, -304, -147, -70, -159, -126, -72, -91, -86])
('ECG', 1763927187365656768, [-53, -46, -42, -25, -11, 11, 39, 51, 70, 102, 124, 133, 131, 126, 119, 105, 65, 2, -60, -116, -173, -222, -243, -248, -266, -278, -259, -250, -257, -252, -243, -236, -224, -217, -212, -203, -196, -189, -182, -189, -194, -182, -170, -173, -177, -175, -170, -175, -187, -191, -184, -175, -175, -177, -175, -173, -173, -170, -166, -170, -170, -166, -166, -170, -166, -159, -159, -168, -163, -156, -156, -147, -135])
('ECG', 1763927187927187968, [-133, -138, -140, -140, -142, -152, -149, -128, -116, -128, -128, -109, -98, -100, -100, -112, -126, -126, -135, -147, -138, -135, -156, -215, -243, 37, 715, 1375, 1179, -124, -893, -306, 21, -278, -245, -84, -145, -177, -119, -107, -112, -88, -79, -77, -56, -32, -18, -4, 9, 28, 46, 63, 74, 88, 100, 93, 72, 46, 2, -58, -116, -168, -210, -250, -271, -273, -259, -243, -252, -264, -248, -233, -231])
('ECG', 1763927188488714080, [-226, -208, -196, -205, -210, -196, -187, -187, -175, -166, -180, -187, -173, -152, -147, -166, -170, -159, -161, -173, -173, -161, -147, -135, -133, -145, -159, -154, -149, -152, -147, -154, -159, -149, -145, -138, -124, -126, -138, -142, -138, -135, -133, -131, -121, -116, -121, -119, -121, -126, -116, -98, -91, -98, -84, -79, -102, -107, -107, -119, -119, -114, -121, -147, -212, -187, 189, 870, 1371, 903, -376, -767, -140])
('ECG', 1763927189050250366, [-28, -280, -173, -79, -156, -142, -88, -105, -102, -60, -44, -46, -35, -16, -4, 9, 25, 44, 67, 91, 105, 112, 112, 86, 63, 49, 0, -70, -124, -166, -203, -233, -259, -266, -255, -255, -259, -243, -229, -229, -222, -215, -210, -198, -194, -191, -182, -175, -177, -163, -154, -161, -161, -159, -166, -166, -156, -168, -177, -166, -161, -161, -156, -152, -149, -147, -152, -156, -159, -159, -154, -149, -149])
('ECG', 1763927189611756136, [-152, -154, -149, -142, -140, -149, -149, -135, -116, -112, -112, -112, -102, -105, -119, -131, -133, -138, -140, -138, -145, -180, -236, -131, 350, 1034, 1307, 484, -687, -620, -35, -145, -285, -128, -109, -161, -109, -91, -119, -95, -65, -58, -35, -9, -2, 23, 46, 53, 70, 95, 105, 121, 140, 140, 119, 86, 42, -7, -67, -140, -205, -238, -248, -255, -259, -248, -238, -245, -245, -217, -196, -201, -210])
('ECG', 1763927190173282250, [-212, -203, -184, -168, -161, -166, -170, -170, -168, -168, -170, -170, -163, -161, -161, -154, -152, -156, -166, -168, -159, -149, -147, -147, -159, -166, -159, -154, -156, -156, -152, -145, -121, -105, -109, -112, -116, -140, -154, -142, -135, -147, -159, -212, -255, 16, 699, 1328, 1071, -240, -959, -355, -35, -269, -198, -74, -133, -124, -77, -86, -77, -49, -46, -35, -9, 7, 21, 37, 53, 74, 102, 121, 131])
('ECG', 1763927190734813450, [145, 149, 131, 93, 60, 25, -46, -131, -182, -205, -224, -243, -266, -266, -243, -240, -245, -229, -217, -210, -189, -177, -187, -191, -182, -173, -161, -154, -149, -147, -149, -159, -161, -161, -168, -170, -161, -152, -149, -154, -159, -166, -168, -149, -131, -149, -166, -159, -159, -156, -142, -133, -126, -121, -121, -114, -124, -152, -159, -142, -142, -149, -149, -191, -276, -131, 479, 1223, 1319, 170, -975, -605, -25])
('ECG', 1763927191296344650, [-219, -255, -72, -114, -156, -93, -93, -107, -81, -58, -37, -18, -9, 7, 21, 37, 65, 84, 100, 121, 119, 102, 95, 86, 53, 0, -58, -121, -189, -236, -250, -262, -285, -292, -271, -262, -269, -259, -243, -240, -236, -224, -210, -201, -198, -201, -194, -182, -184, -191, -187, -182, -177, -170, -173, -182, -182, -170, -163, -166, -170, -173, -173, -168, -163, -159, -154, -156, -161, -159, -149, -149, -156])
('ECG', 1763927191857875850, [-161, -156, -154, -147, -131, -124, -131, -121, -109, -133, -163, -149, -116, -119, -138, -173, -243, -154, 353, 1073, 1373, 531, -732, -692, -35, -124, -294, -124, -102, -175, -121, -88, -112, -91, -58, -60, -53, -35, -21, -2, 21, 32, 53, 84, 88, 86, 98, 100, 77, 51, 14, -46, -114, -168, -201, -226, -262, -290, -283, -266, -269, -269, -250, -236, -233, -217, -191, -184, -194, -191, -177, -177, -184])
('ECG', 1763927192419407050, [-180, -173, -173, -173, -161, -149, -152, -159, -159, -156, -156, -163, -156, -147, -163, -170, -145, -135, -142, -145, -140, -135, -131, -133, -126, -124, -131, -138, -131, -124, -119, -124, -135, -142, -124, -109, -105, -107, -107, -105, -109, -121, -133, -131, -119, -119, -138, -180, -233, -107, 430, 1137, 1310, 325, -802, -554, 25, -154, -266, -95, -107, -166, -102, -86, -107, -77, -51, -53, -49, -25, 7, 23, 25])
('ECG', 1763927192980943336, [37, 58, 74, 98, 112, 102, 98, 98, 77, 28, -37, -102, -156, -191, -215, -236, -250, -248, -238, -238, -238, -229, -222, -219, -208, -194, -184, -180, -170, -163, -166, -175, -177, -166, -152, -156, -173, -175, -168, -170, -163, -154, -156, -166, -163, -154, -142, -135, -138, -149, -154, -142, -133, -135, -133, -126, -131, -142, -133, -112, -119, -145, -138, -114, -109, -114, -109, -114, -124, -126, -121, -112, -112])
('ECG', 1763927193542469450, [-124, -133, -119, -95, -93, -95, -86, -79, -98, -128, -131, -109, -109, -121, -131, -182, -222, 18, 636, 1256, 1111, -77, -844, -320, 21, -245, -217, -67, -135, -154, -88, -91, -107, -77, -51, -44, -42, -28, -4, 9, 18, 37, 58, 67, 81, 98, 98, 81, 67, 58, 16, -51, -114, -161, -198, -215, -226, -240, -248, -245, -243, -231, -210, -208, -217, -205, -182, -180, -182, -166, -154, -163, -163])
('ECG', 1763927194104000650, [-156, -159, -159, -152, -145, -142, -154, -161, -154, -145, -149, -159, -159, -152, -147, -142, -135, -140, -149, -145, -138, -138, -142, -142, -142, -145, -140, -133, -124, -126, -138, -133, -124, -126, -131, -135, -131, -124, -121, -121, -121, -131, -135, -124, -109, -112, -112, -105, -93, -100, -116, -124, -126, -126, -128, -138, -163, -222, -168, 266, 963, 1333, 612, -627, -690, -53, -91, -266, -114, -88, -166, -126, -86])
('ECG', 1763927194665531850, [-93, -77, -60, -58, -39, -16, -7, -2, 7, 28, 46, 65, 86, 100, 102, 98, 91, 70, 44, 0, -65, -126, -163, -196, -231, -238, -233, -238, -238, -231, -226, -224, -215, -203, -191, -187, -182, -173, -173, -173, -159, -152, -161, -161, -152, -154, -166, -166, -159, -163, -163, -142, -138, -163, -163, -145, -147, -152, -149, -152, -145, -142, -149, -138, -126, -142, -147, -131, -128, -138, -133, -133, -135])
('ECG', 1763927195227063050, [-133, -131, -131, -135, -140, -126, -114, -128, -140, -128, -116, -109, -105, -105, -98, -102, -126, -133, -107, -102, -119, -119, -154, -236, -86, 486, 1165, 1251, 219, -821, -517, -14, -189, -210, -51, -100, -131, -63, -53, -70, -44, -25, -9, 7, 9, 11, 30, 56, 77, 95, 105, 114, 124, 121, 105, 86, 63, 28, -21, -79, -135, -175, -205, -231, -240, -238, -243, -248, -236, -222, -222, -217, -198])
('ECG', 1763927195788594250, [-187, -187, -175, -166, -170, -170, -166, -166, -163, -156, -159, -166, -170, -168, -163, -166, -159, -159, -168, -168, -163, -163, -159, -149, -154, -159, -152, -140, -133, -135, -140, -138, -140, -149, -133, -114, -124, -135, -142, -145, -140, -133, -128, -116, -114, -116, -112, -109, -131, -147, -135, -128, -140, -138, -154, -236, -224, 168, 870, 1333, 734, -577, -811, -138, -86, -285, -135, -74, -154, -128, -79, -88, -81])
('ECG', 1763927196350125450, [-58, -51, -42, -28, -11, 16, 35, 37, 63, 93, 95, 95, 98, 86, 70, 56, 21, -28, -74, -133, -191, -224, -243, -257, -259, -257, -259, -255, -240, -231, -229, -222, -212, -205, -203, -198, -189, -189, -191, -177, -173, -184, -184, -173, -170, -177, -180, -177, -170, -175, -182, -177, -166, -163, -168, -175, -170, -154, -149, -156, -156, -152, -152, -161, -166, -156, -142, -131, -138, -147, -140, -138, -154])
('ECG', 1763927196911666822, [-161, -152, -145, -142, -135, -126, -126, -124, -126, -140, -156, -147, -133, -138, -138, -161, -224, -191, 180, 842, 1319, 839, -418, -772, -138, -30, -259, -147, -70, -149, -128, -79, -93, -81, -51, -51, -44, -21, -2, 4, 21, 42, 58, 74, 100, 116, 112, 107, 98, 77, 44, -7, -72, -126, -168, -215, -245, -245, -248, -252, -245, -243, -250, -240, -215, -205, -210, -210, -201, -182, -177, -180, -175])
('ECG', 1763927197473187850, [-168, -173, -173, -159, -152, -163, -170, -152, -147, -166, -163, -145, -149, -154, -147, -147, -149, -154, -161, -154, -142, -147, -147, -138, -140, -147, -145, -138, -140, -142, -142, -140, -140, -135, -133, -138, -145, -145, -138, -126, -116, -112, -107, -107, -121, -138, -142, -140, -138, -133, -142, -203, -245, 0, 627, 1228, 1059, -93, -830, -334, -2, -240, -212, -77, -145, -163, -100, -100, -100, -67, -58, -49, -21])
('ECG', 1763927198034719050, [-7, 0, 9, 25, 49, 70, 81, 100, 116, 114, 95, 81, 72, 28, -49, -114, -161, -203, -231, -236, -233, -245, -257, -245, -233, -226, -224, -222, -215, -208, -191, -175, -170, -173, -173, -170, -168, -163, -159, -154, -156, -168, -168, -159, -163, -175, -166, -156, -161, -163, -161, -154, -154, -163, -156, -145, -154, -159, -154, -154, -152, -133, -124, -133, -138, -135, -131, -131, -131, -133, -133, -128, -133])
('ECG', 1763927198596250250, [-149, -149, -126, -114, -112, -107, -102, -109, -135, -145, -133, -126, -126, -133, -170, -238, -161, 301, 975, 1268, 510, -648, -641, -49, -114, -262, -116, -98, -159, -119, -91, -100, -81, -63, -58, -42, -25, -14, -2, 11, 28, 51, 77, 91, 95, 98, 93, 86, 70, 28, -30, -93, -152, -191, -205, -217, -238, -248, -243, -243, -240, -231, -226, -222, -212, -198, -187, -184, -182, -180, -168, -161, -163])
('ECG', 1763927199157781450, [-166, -166, -161, -156, -166, -168, -154, -149, -159, -163, -159, -152, -147, -147, -149, -149, -142, -142, -145, -147, -149, -145, -138, -135, -140, -142, -140, -138, -138, -133, -133, -138, -138, -138, -135, -128, -126, -131, -128, -126, -128, -131, -135, -142, -135, -119, -105, -95, -95, -84, -81, -107, -126, -121, -119, -128, -126, -135, -194, -215, 58, 676, 1233, 994, -180, -811, -264, 2, -257, -203, -70, -142, -159])
('ECG', 1763927199719312650, [-91, -88, -102, -67, -39, -35, -23, -4, 7, 16, 39, 60, 79, 98, 107, 112, 112, 98, 70, 42, 7, -51, -109, -154, -196, -231, -240, -238, -245, -252, -243, -238, -236, -229, -215, -201, -191, -191, -194, -184, -163, -161, -166, -159, -159, -163, -159, -154, -166, -173, -166, -156, -161, -168, -166, -161, -161, -156, -149, -159, -163, -154, -149, -149, -145, -147, -152, -147, -142, -147, -149, -142, -135])
('ECG', 1763927200280843850, [-140, -140, -135, -133, -138, -140, -138, -133, -124, -116, -119, -121, -124, -128, -126, -124, -131, -133, -145, -198, -219, 53, 666, 1211, 970, -191, -816, -266, 7, -238, -187, -63, -128, -131, -81, -88, -84, -60, -51, -30, -9, 4, 23, 39, 46, 63, 91, 107, 109, 112, 114, 107, 88, 56, 11, -42, -105, -163, -201, -212, -229, -248, -257, -250, -238, -224, -217, -219, -210, -189, -180, -182, -180])
('ECG', 1763927200842375050, [-177, -173, -166, -166, -163, -152, -152, -161, -168, -159, -142, -147, -161, -154, -145, -152, -152, -149, -149, -140, -138, -145, -145, -145, -140, -126, -116, -121, -128, -133, -133, -126, -114, -112, -114, -121, -142, -133, -102, -100, -112, -105, -93, -91, -105, -128, -131, -119, -124, -119, -114, -175, -245, -37, 580, 1242, 1197, 14, -938, -470, 2, -196, -177, -32, -98, -119, -56, -51, -44, -25, -28, -18, 4])
('ECG', 1763927201403906250, [25, 56, 63, 53, 74, 109, 138, 168, 177, 168, 149, 128, 116, 86, -11, -119, -156, -170, -191, -208, -224, -238, -236, -229, -222, -217, -215, -208, -189, -175, -173, -175, -175, -163, -156, -168, -173, -159, -156, -156, -154, -156, -159, -154, -154, -159, -166, -166, -161, -154, -147, -149, -154, -154, -159, -152, -147, -152, -154, -149, -149, -159, -166, -159, -149, -140, -133, -138, -133, -124, -138, -163, -159])
('ECG', 1763927201965437450, [-138, -133, -140, -189, -271, -173, 341, 1062, 1357, 479, -783, -678, -14, -140, -285, -98, -84, -147, -100, -74, -72, -46, -49, -56, -30, -4, 7, 23, 35, 42, 65, 98, 109, 109, 102, 93, 86, 72, 28, -46, -128, -177, -196, -212, -243, -264, -257, -245, -245, -240, -229, -224, -217, -212, -210, -203, -189, -182, -170, -170, -177, -168, -154, -159, -168, -163, -149, -147, -161, -168, -166, -156, -147])
('ECG', 1763927202526968650, [-156, -166, -154, -149, -154, -140, -131, -145, -159, -145, -131, -135, -140, -135, -138, -147, -147, -140, -133, -121, -119, -121, -112, -109, -128, -140, -135, -128, -124, -138, -205, -269, -39, 605, 1296, 1251, 46, -905, -425, 21, -236, -233, -70, -140, -166, -88, -77, -86, -65, -53, -49, -35, -16, 0, 14, 42, 70, 77, 81, 105, 114, 93, 79, 74, 72, 44, -46, -142, -180, -203, -245, -283, -269])
('ECG', 1763927203088499850, [-233, -271, -313, -262, -238, -276, -243, -189, -212, -238, -194, -159, -191, -215, -175, -149, -166, -168, -142, -138, -166, -184, -180, -149, -126, -145, -163, -147, -140, -159, -161, -152, -142, -116, -102, -119, -133, -138, -149, -168, -170, -124, -84, -114, -131, -105, -98, -114, -116, -112, -135, -145, -102, -93, -135, -147, -166, -217, -112, 372, 1052, 1305, 402, -821, -683, -11, -100, -245, -95, -88, -147, -102, -70])
('ECG', 1763927203650031050, [-79, -63, -30, -23, -39, -18, 21, 16, 23, 60, 67, 86, 133, 114, 98, 140, 119, 39, 7, -25, -109, -163, -154, -182, -245, -257, -243, -264, -273, -224, -180, -219, -245, -210, -196, -191, -168, -156, -156, -159, -149, -159, -166, -128, -107, -133, -140, -135, -149, -147, -128, -135, -152, -152, -135, -119, -124, -128, -124, -133, -147, -126, -105, -128, -140, -124, -131, -145, -138, -140, -140, -116, -112])
('ECG', 1763927204211562250, [-121, -121, -112, -107, -133, -154, -149, -149, -147, -142, -163, -217, -140, 297, 959, 1258, 481, -725, -729, -100, -131, -243, -81, -102, -189, -138, -102, -105, -88, -81, -67, -35, -32, -39, -14, 18, 37, 46, 46, 63, 81, 88, 81, 74, 67, 21, -32, -58, -121, -208, -238, -266, -276, -226, -224, -257, -243, -222, -226, -236, -205, -177, -191, -201, -198, -173, -128, -142, -170, -161, -170, -187, -170])
('ECG', 1763927204773093450, [-154, -163, -180, -161, -140, -156, -156, -147, -140, -128, -161, -175, -133, -121, -133, -124, -149, -182, -145, -107, -121, -116, -124, -159, -107, -60, -126, -170, -147, -142, -145, -140, -147, -194, -248, -39, 568, 1228, 1204, 14, -989, -531, -23, -233, -212, -23, -107, -170, -79, -42, -84, -91, -35, 11, -2, -25, -9, 32, 42, 39, 91, 140, 138, 116, 98, 109, 100, 39, 11, -25, -135, -198, -217])
('ECG', 1763927205334624650, [-257, -250, -236, -273, -271, -245, -262, -248, -222, -236, -217, -201, -212, -184, -180, -189, -173, -173, -152, -126, -161, -191, -173, -173, -205, -203, -161, -149, -173, -154, -131, -156, -161, -135, -152, -173, -147, -126, -142, -154, -159, -175, -156, -107, -112, -126, -105, -114, -145, -156, -152, -154, -173, -173, -138, -168, -243, -32, 598, 1258, 1148, -121, -1027, -470, -42, -280, -212, -49, -135, -145, -74, -102, -126])
('ECG', 1763927205896155850, [-95, -86, -79, -32, 4, -2, -2, 21, 46, 65, 81, 81, 86, 105, 93, 56, 32, -25, -114, -159, -184, -233, -266, -269, -278, -280, -248, -252, -280, -245, -215, -250, -248, -194, -194, -208, -182, -163, -161, -173, -191, -163, -142, -168, -175, -163, -175, -170, -156, -170, -177, -191, -196, -140, -114, -156, -156, -135, -152, -168, -159, -124, -124, -161, -145, -112, -145, -156, -121, -121, -128, -88, -79])
('ECG', 1763927206457687050, [-114, -124, -126, -135, -131, -128, -142, -173, -182, 9, 545, 1183, 1186, 70, -858, -430, 16, -224, -238, -56, -116, -156, -67, -70, -102, -67, -46, -53, -32, -7, 2, 18, 39, 46, 63, 86, 98, 105, 114, 112, 88, 53, 7, -58, -124, -170, -203, -226, -240, -245, -250, -252, -238, -233, -240, -233, -219, -215, -196, -180, -184, -187, -175, -168, -170, -173, -168, -168, -175, -173, -168, -170, -173])
('ECG', 1763927207019218250, [-170, -163, -152, -159, -175, -168, -149, -154, -156, -147, -152, -149, -135, -145, -149, -119, -114, -138, -126, -109, -124, -126, -119, -126, -133, -126, -119, -121, -131, -135, -121, -105, -98, -102, -107, -102, -107, -126, -140, -147, -142, -116, -109, -152, -233, -198, 210, 921, 1387, 776, -559, -802, -121, -67, -283, -142, -86, -166, -128, -81, -102, -91, -58, -65, -67, -28, 4, -4, 2, 35, 46, 58, 81])
('ECG', 1763927207580749450, [91, 88, 93, 95, 86, 60, 7, -56, -126, -182, -210, -224, -238, -245, -233, -219, -222, -231, -222, -203, -201, -205, -191, -182, -180, -173, -166, -161, -156, -156, -161, -163, -163, -154, -149, -152, -152, -142, -135, -142, -147, -147, -152, -142, -133, -142, -142, -126, -128, -140, -131, -124, -135, -145, -142, -128, -114, -126, -140, -126, -109, -105, -109, -114, -112, -114, -135, -138, -119, -112, -119, -128, -170])
('ECG', 1763927208142270476, [-245, -182, 271, 1006, 1406, 610, -736, -779, -88, -119, -259, -95, -86, -147, -88, -60, -81, -60, -42, -37, -16, 0, -4, 7, 37, 58, 77, 105, 121, 114, 109, 119, 109, 74, 23, -37, -93, -154, -201, -224, -238, -259, -269, -266, -264, -262, -255, -248, -248, -238, -217, -205, -201, -198, -191, -182, -173, -166, -166, -163, -161, -156, -152, -149, -154, -168, -161, -145, -147, -156, -154, -142, -142])
('ECG', 1763927208703806762, [-154, -161, -152, -147, -149, -149, -147, -149, -149, -140, -128, -131, -138, -138, -128, -128, -145, -147, -124, -112, -116, -116, -107, -107, -124, -140, -138, -131, -126, -124, -149, -229, -255, 46, 729, 1382, 1139, -208, -926, -297, -4, -292, -219, -81, -161, -159, -93, -109, -116, -81, -72, -72, -53, -30, -9, 9, 32, 63, 77, 81, 100, 107, 93, 84, 74, 42, -9, -67, -135, -184, -210, -229, -248])
('ECG', 1763927209265312532, [-257, -264, -271, -257, -236, -226, -224, -210, -196, -194, -189, -182, -168, -156, -159, -156, -152, -159, -152, -138, -147, -156, -145, -140, -149, -145, -145, -154, -159, -154, -145, -140, -147, -154, -140, -128, -138, -147, -147, -142, -133, -131, -138, -131, -126, -135, -131, -114, -109, -119, -116, -112, -119, -128, -133, -124, -109, -105, -100, -109, -112, -95, -100, -128, -133, -121, -121, -119, -124, -187, -243, -39, 554])
('ECG', 1763927209826848818, [1242, 1328, 238, -814, -449, 51, -189, -257, -91, -126, -163, -102, -88, -100, -81, -63, -56, -44, -23, -9, -4, 14, 42, 63, 72, 86, 105, 112, 105, 91, 67, 32, -28, -86, -128, -168, -198, -222, -238, -238, -222, -210, -205, -205, -205, -196, -189, -184, -180, -177, -173, -161, -156, -161, -156, -142, -142, -152, -154, -149, -154, -154, -149, -149, -152, -147, -142, -138, -140, -147, -145, -138, -140])
('ECG', 1763927210388385104, [-142, -138, -131, -135, -142, -140, -131, -128, -126, -119, -114, -119, -126, -124, -116, -119, -112, -93, -98, -116, -109, -95, -107, -107, -91, -86, -93, -86, -72, -74, -98, -107, -91, -84, -105, -119, -156, -226, -79, 488, 1211, 1399, 372, -818, -556, 32, -161, -259, -74, -88, -147, -79, -51, -84, -74, -32, -11, -7, -4, 9, 32, 46, 65, 95, 102, 102, 128, 138, 128, 126, 105, 65, 14])
('ECG', 1763927210949936650, [-60, -128, -166, -189, -212, -229, -233, -233, -233, -229, -215, -215, -212, -189, -170, -170, -168, -161, -154, -145, -145, -138, -126, -128, -128, -124, -114, -119, -135, -138, -133, -135, -128, -107, -112, -131, -128, -114, -112, -131, -138, -124, -114, -112, -105, -107, -114, -109, -105, -114, -116, -112, -107, -102, -112, -119, -109, -105, -107, -105, -91, -88, -93, -93, -100, -126, -135, -119, -109, -109, -124, -182, -248])
('ECG', 1763927211511467850, [-60, 545, 1270, 1357, 187, -931, -524, 21, -205, -243, -63, -93, -128, -72, -60, -70, -49, -35, -28, -9, 2, 11, 32, 58, 81, 105, 124, 131, 145, 149, 138, 124, 91, 37, -18, -77, -138, -191, -217, -224, -236, -245, -231, -224, -236, -238, -226, -210, -203, -208, -205, -187, -163, -163, -170, -161, -159, -161, -161, -163, -163, -159, -161, -173, -161, -135, -142, -166, -168, -163, -163, -159, -142])
('ECG', 1763927212072999050, [-138, -147, -152, -149, -145, -135, -128, -133, -140, -133, -126, -128, -121, -109, -114, -121, -105, -95, -114, -119, -107, -116, -133, -112, -91, -98, -105, -95, -95, -109, -121, -121, -114, -102, -105, -133, -201, -229, 58, 746, 1415, 1193, -166, -933, -313, 2, -278, -203, -58, -145, -154, -84, -91, -98, -56, -42, -46, -21, 0, 2, 16, 44, 67, 84, 100, 116, 124, 119, 112, 100, 74, 25, -44])
('ECG', 1763927212634530250, [-109, -159, -189, -215, -236, -248, -240, -240, -248, -236, -222, -222, -219, -208, -198, -198, -198, -187, -177, -180, -182, -168, -152, -156, -163, -156, -154, -168, -170, -166, -168, -159, -156, -170, -170, -154, -149, -156, -161, -159, -147, -147, -159, -159, -149, -149, -154, -152, -145, -147, -145, -138, -138, -140, -142, -142, -135, -138, -140, -133, -133, -133, -131, -135, -133, -128, -133, -126, -114, -133, -145, -114, -86])
('ECG', 1763927213196061450, [-95, -105, -88, -84, -107, -131, -131, -121, -124, -126, -142, -208, -198, 168, 884, 1476, 1062, -306, -811, -156, -11, -294, -187, -77, -161, -142, -84, -102, -100, -65, -56, -53, -35, -21, -11, 11, 30, 44, 67, 86, 100, 102, 98, 95, 86, 65, 23, -35, -95, -152, -201, -229, -229, -236, -250, -248, -245, -236, -217, -210, -201, -187, -194, -201, -184, -170, -170, -170, -161, -152, -152, -159, -159])
('ECG', 1763927213757592650, [-154, -161, -161, -142, -142, -159, -159, -147, -149, -154, -152, -147, -140, -133, -140, -142, -142, -147, -140, -131, -135, -140, -135, -133, -131, -128, -135, -140, -133, -126, -128, -133, -131, -124, -124, -128, -121, -124, -121, -112, -116, -126, -116, -107, -119, -128, -114, -100, -100, -100, -91, -95, -107, -121, -121, -107, -109, -131, -180, -229, -44, 552, 1251, 1310, 229, -776, -421, 42, -194, -238, -74, -126, -168])
('ECG', 1763927214319108590, [-93, -79, -98, -77, -53, -46, -39, -25, -7, 11, 30, 46, 63, 74, 95, 116, 112, 98, 93, 70, 30, -16, -74, -142, -194, -217, -226, -240, -248, -243, -243, -238, -226, -217, -215, -208, -198, -194, -196, -184, -173, -180, -187, -175, -163, -159, -154, -154, -154, -156, -161, -161, -152, -147, -156, -161, -159, -161, -163, -152, -142, -145, -149, -142, -140, -140, -145, -142, -138, -142, -142, -138, -135])
('ECG', 1763927214880644876, [-140, -135, -124, -128, -135, -128, -119, -124, -131, -124, -112, -114, -124, -126, -128, -131, -121, -107, -100, -100, -95, -95, -116, -128, -107, -100, -114, -116, -128, -191, -203, 107, 760, 1314, 985, -255, -797, -201, 14, -243, -182, -70, -131, -131, -86, -86, -79, -60, -56, -42, -21, -14, -7, 9, 30, 53, 74, 88, 102, 105, 98, 95, 79, 49, 7, -49, -107, -163, -212, -233, -243, -255, -257])
('ECG', 1763927215442155732, [-245, -248, -240, -231, -233, -229, -212, -208, -203, -191, -187, -175, -161, -166, -170, -156, -159, -180, -175, -166, -173, -170, -163, -166, -163, -159, -163, -161, -159, -166, -166, -152, -147, -152, -147, -142, -145, -149, -145, -135, -131, -128, -126, -128, -128, -128, -124, -121, -126, -133, -128, -121, -116, -119, -124, -131, -135, -128, -114, -102, -100, -98, -93, -109, -128, -112, -100, -116, -128, -138, -194, -210, 79])
('ECG', 1763927216003686932, [708, 1249, 968, -215, -795, -236, 4, -231, -166, -58, -135, -138, -79, -81, -86, -63, -49, -44, -32, -14, 9, 21, 30, 56, 86, 93, 98, 109, 107, 95, 79, 58, 18, -39, -100, -154, -196, -224, -243, -252, -250, -240, -240, -240, -233, -222, -212, -203, -198, -201, -196, -182, -180, -177, -175, -175, -177, -180, -173, -166, -166, -173, -177, -170, -161, -166, -163, -156, -166, -177, -163, -154, -163])
('ECG', 1763927216565218132, [-159, -152, -161, -159, -145, -145, -147, -145, -145, -138, -138, -149, -145, -131, -140, -138, -109, -105, -126, -138, -131, -119, -109, -100, -102, -102, -98, -109, -128, -126, -116, -121, -126, -135, -187, -194, 109, 734, 1225, 861, -313, -774, -196, -11, -236, -152, -58, -128, -121, -79, -88, -84, -51, -39, -35, -21, -2, 11, 25, 44, 58, 72, 88, 102, 109, 107, 95, 74, 53, 14, -51, -116, -163])
('ECG', 1763927217126728986, [-210, -250, -250, -238, -250, -262, -248, -226, -215, -210, -201, -182, -177, -189, -175, -161, -170, -175, -163, -159, -159, -159, -159, -163, -166, -166, -159, -154, -159, -166, -170, -168, -156, -147, -154, -163, -152, -138, -147, -154, -149, -149, -152, -152, -154, -142, -133, -131, -131, -131, -140, -149, -142, -128, -119, -119, -124, -114, -109, -126, -133, -131, -133, -135, -128, -147, -208, -163, 243, 891, 1207, 521, -617])
('ECG', 1763927217688250014, [-680, -81, -93, -248, -102, -70, -152, -107, -49, -67, -67, -35, -25, -25, -4, 18, 30, 42, 63, 86, 95, 105, 119, 121, 105, 93, 81, 51, -2, -72, -133, -168, -196, -226, -248, -252, -245, -231, -226, -222, -205, -196, -191, -180, -180, -189, -184, -175, -168, -163, -170, -173, -161, -159, -163, -163, -161, -163, -161, -166, -168, -156, -149, -149, -152, -154, -152, -138, -135, -142, -135, -128, -128])
('ECG', 1763927218249781214, [-128, -128, -128, -126, -128, -131, -135, -138, -131, -121, -121, -114, -95, -95, -105, -100, -105, -126, -133, -126, -126, -124, -126, -173, -203, 37, 650, 1197, 926, -233, -821, -269, 7, -210, -156, -53, -124, -121, -63, -72, -79, -56, -37, -28, -16, -4, 11, 28, 46, 67, 81, 91, 100, 114, 119, 107, 84, 58, 23, -23, -84, -142, -182, -203, -215, -231, -238, -229, -212, -208, -205, -198, -184])
('ECG', 1763927218811312414, [-177, -177, -173, -168, -173, -163, -142, -145, -163, -161, -154, -149, -149, -152, -154, -156, -152, -147, -147, -142, -145, -152, -145, -138, -140, -142, -140, -140, -133, -126, -128, -138, -138, -128, -126, -128, -126, -133, -138, -126, -124, -135, -128, -114, -105, -105, -107, -105, -105, -124, -133, -119, -109, -116, -121, -138, -191, -126, 313, 956, 1197, 414, -673, -605, -44, -119, -236, -88, -81, -145, -100, -65, -74])
('ECG', 1763927219372843614, [-60, -44, -42, -28, -9, 2, 14, 37, 63, 79, 98, 114, 116, 107, 100, 93, 65, 35, -9, -72, -128, -168, -196, -208, -219, -226, -222, -215, -212, -208, -198, -184, -177, -180, -168, -154, -159, -163, -154, -154, -159, -149, -142, -142, -138, -140, -147, -133, -131, -145, -145, -138, -133, -131, -135, -140, -140, -135, -133, -133, -131, -126, -128, -135, -135, -124, -116, -126, -128, -124, -128, -135, -128])
('ECG', 1763927219934374814, [-116, -114, -109, -102, -84, -74, -102, -128, -116, -105, -112, -109, -114, -166, -196, 51, 641, 1176, 947, -175, -804, -287, 2, -215, -168, -51, -121, -128, -63, -72, -84, -51, -35, -35, -21, 2, 28, 44, 53, 77, 93, 100, 112, 119, 114, 105, 79, 39, 7, -37, -102, -156, -187, -210, -226, -226, -231, -233, -224, -210, -198, -194, -194, -182, -156, -145, -152, -154, -147, -149, -149, -142, -154])
('ECG', 1763927220495885668, [-166, -152, -140, -149, -149, -142, -142, -147, -147, -138, -131, -140, -145, -133, -126, -133, -133, -121, -121, -131, -126, -119, -124, -124, -121, -128, -131, -116, -95, -79, -81, -95, -95, -98, -119, -126, -116, -114, -119, -126, -168, -187, 86, 708, 1223, 872, -306, -802, -236, -18, -229, -156, -56, -126, -126, -63, -60, -77, -60, -35, -23, -16, -7, 11, 32, 56, 72, 84, 100, 107, 105, 100, 88])
('ECG', 1763927221057406696, [63, 42, 7, -56, -119, -168, -203, -217, -233, -252, -240, -222, -226, -222, -198, -187, -182, -173, -163, -156, -159, -149, -142, -147, -142, -128, -133, -147, -149, -140, -140, -145, -145, -149, -140, -128, -133, -138, -138, -140, -142, -135, -131, -135, -131, -124, -126, -128, -124, -114, -114, -128, -131, -126, -124, -124, -109, -88, -93, -107, -114, -121, -126, -119, -114, -119, -126, -156, -212, -116, 346, 982, 1193])
('ECG', 1763927221618937896, [395, -690, -615, -46, -109, -231, -95, -77, -124, -86, -65, -79, -60, -35, -23, -7, 4, 16, 37, 58, 63, 70, 88, 107, 114, 116, 109, 95, 65, 18, -28, -72, -126, -173, -198, -217, -236, -238, -224, -222, -224, -205, -189, -182, -182, -180, -173, -166, -159, -154, -156, -159, -154, -149, -142, -135, -140, -142, -147, -159, -163, -152, -142, -142, -156, -161, -140, -128, -145, -152, -138, -135, -135])
('ECG', 1763927222180469096, [-135, -135, -135, -140, -135, -124, -124, -135, -133, -112, -116, -126, -102, -81, -98, -109, -107, -119, -131, -124, -121, -128, -147, -203, -163, 229, 875, 1235, 645, -519, -720, -121, -63, -240, -128, -86, -145, -102, -72, -91, -67, -39, -46, -39, -16, 0, 4, 23, 49, 70, 86, 95, 93, 86, 77, 67, 58, 32, -14, -60, -105, -154, -191, -210, -226, -238, -236, -229, -222, -208, -189, -182, -177])
('ECG', 1763927222742000294, [-166, -161, -163, -161, -154, -152, -149, -142, -131, -131, -140, -140, -142, -142, -138, -135, -147, -147, -140, -135, -128, -121, -126, -131, -131, -131, -128, -131, -131, -126, -135, -131, -109, -107, -107, -100, -93, -98, -112, -133, -135, -121, -109, -124, -156, -212, -177, 226, 924, 1300, 601, -643, -762, -133, -121, -252, -84, -58, -126, -74, -39, -65, -56, -28, -7, 4, 7, 21, 51, 63, 67, 93, 114])
('ECG', 1763927223303531496, [114, 126, 140, 116, 84, 77, 56, -2, -79, -133, -156, -184, -217, -231, -238, -231, -222, -222, -219, -210, -194, -177, -173, -161, -166, -184, -175, -154, -156, -166, -161, -156, -163, -159, -152, -152, -154, -159, -161, -156, -149, -145, -140, -138, -135, -133, -133, -142, -152, -140, -126, -124, -114, -100, -107, -128, -133, -126, -126, -126, -131, -135, -161, -226, -156, 318, 1022, 1289, 411, -797, -706, -98, -180])
('ECG', 1763927223865042350, [-245, -58, -70, -140, -77, -56, -86, -63, -32, -35, -28, -7, 18, 44, 60, 65, 72, 95, 114, 109, 105, 98, 77, 44, 0, -56, -112, -170, -215, -233, -243, -255, -255, -252, -252, -245, -231, -219, -212, -203, -196, -198, -201, -182, -159, -159, -173, -173, -163, -163, -159, -149, -152, -163, -163, -152, -152, -154, -152, -149, -154, -161, -159, -149, -147, -145, -126, -128, -140, -131, -121, -128, -126])
('ECG', 1763927224426563378, [-116, -109, -107, -116, -131, -126, -116, -128, -128, -124, -166, -243, -128, 404, 1137, 1415, 505, -762, -650, 0, -135, -285, -105, -105, -175, -112, -72, -91, -79, -56, -44, -37, -28, -11, 0, 14, 35, 58, 81, 98, 100, 98, 95, 81, 49, 2, -56, -116, -159, -194, -231, -248, -248, -248, -250, -250, -250, -245, -226, -205, -196, -203, -208, -194, -175, -173, -175, -175, -177, -177, -163, -159, -166])
('ECG', 1763927224988094578, [-161, -156, -156, -145, -154, -173, -163, -154, -168, -166, -145, -147, -149, -142, -154, -156, -131, -119, -128, -138, -135, -126, -119, -107, -102, -107, -102, -100, -124, -140, -126, -114, -124, -128, -149, -226, -149, 353, 1080, 1389, 538, -736, -687, -39, -138, -276, -98, -86, -152, -100, -72, -98, -79, -44, -39, -37, -23, -4, 14, 25, 32, 58, 84, 91, 95, 100, 100, 79, 46, 7, -42, -107, -163])
('ECG', 1763927225549620690, [-198, -229, -250, -252, -259, -269, -245, -224, -226, -229, -224, -212, -203, -194, -180, -182, -191, -184, -170, -161, -159, -168, -173, -163, -152, -149, -163, -163, -152, -152, -154, -156, -159, -154, -140, -133, -142, -166, -159, -135, -135, -142, -142, -140, -140, -131, -131, -135, -126, -112, -114, -124, -124, -116, -114, -124, -128, -119, -98, -100, -121, -121, -112, -126, -128, -109, -105, -112, -121, -124, -121, -107, -91])
('ECG', 1763927226111126460, [-88, -98, -93, -86, -98, -116, -121, -114, -116, -126, -154, -222, -142, 334, 1031, 1380, 655, -589, -655, -42, -107, -287, -133, -105, -175, -116, -72, -114, -107, -67, -60, -53, -30, -23, -23, 9, 44, 42, 39, 60, 74, 77, 79, 70, 44, 14, -9, -53, -109, -159, -196, -217, -219, -226, -231, -224, -219, -222, -224, -210, -191, -184, -189, -184, -163, -149, -161, -173, -156, -145, -147, -145, -140])
('ECG', 1763927226672657660, [-142, -140, -140, -142, -145, -147, -147, -142, -140, -138, -135, -138, -142, -131, -112, -116, -131, -126, -126, -140, -138, -116, -116, -128, -121, -109, -112, -119, -124, -131, -128, -119, -119, -128, -119, -109, -119, -124, -119, -112, -107, -109, -105, -98, -88, -86, -98, -116, -128, -138, -131, -121, -133, -168, -224, -168, 245, 921, 1303, 652, -561, -687, -79, -91, -266, -119, -81, -168, -142, -88, -93, -93, -67])
('ECG', 1763927227234188860, [-49, -46, -32, -4, 4, 9, 30, 65, 79, 79, 98, 128, 131, 112, 93, 60, 7, -51, -100, -145, -177, -191, -208, -222, -224, -219, -217, -219, -219, -198, -182, -187, -189, -173, -159, -159, -159, -156, -159, -152, -147, -152, -156, -152, -145, -138, -147, -163, -156, -138, -135, -156, -166, -142, -138, -154, -152, -140, -142, -149, -149, -138, -133, -138, -135, -128, -133, -145, -142, -135, -131, -128, -114])
('ECG', 1763927227795720060, [-105, -119, -128, -119, -102, -102, -100, -86, -77, -84, -93, -100, -105, -109, -112, -112, -121, -138, -182, -233, -65, 491, 1155, 1233, 175, -861, -524, -18, -201, -226, -65, -109, -152, -95, -74, -67, -39, -30, -32, -18, 2, 11, 23, 49, 70, 81, 93, 112, 124, 124, 124, 107, 72, 25, -23, -74, -133, -182, -208, -224, -238, -248, -248, -243, -231, -217, -212, -208, -201, -198, -187, -170, -170])
('ECG', 1763927228357251260, [-170, -156, -152, -161, -163, -149, -147, -161, -163, -152, -149, -159, -156, -142, -147, -161, -159, -147, -147, -156, -152, -145, -154, -163, -152, -131, -126, -131, -133, -133, -131, -133, -138, -138, -135, -131, -121, -112, -124, -133, -131, -126, -121, -107, -91, -79, -88, -107, -121, -121, -124, -128, -128, -135, -147, -191, -238, -44, 545, 1216, 1256, 145, -863, -465, 21, -201, -224, -49, -88, -138, -84, -72, -84])
('ECG', 1763927228918777372, [-65, -44, -37, -28, -9, 9, 30, 51, 70, 86, 100, 114, 124, 128, 114, 91, 72, 46, -9, -81, -138, -180, -203, -215, -231, -240, -238, -236, -233, -229, -222, -219, -217, -203, -187, -177, -177, -177, -168, -163, -159, -152, -152, -159, -152, -140, -152, -168, -156, -140, -145, -149, -145, -145, -152, -149, -145, -140, -133, -142, -149, -140, -138, -138, -133, -135, -140, -135, -133, -135, -138, -135, -133])
('ECG', 1763927229480283142, [-133, -128, -121, -119, -121, -128, -131, -128, -128, -133, -131, -119, -109, -105, -98, -86, -79, -88, -86, -84, -102, -116, -107, -107, -116, -114, -119, -168, -231, -86, 460, 1160, 1354, 388, -744, -519, 28, -166, -271, -91, -100, -154, -93, -67, -88, -70, -44, -42, -32, -4, 11, 16, 25, 49, 77, 91, 95, 105, 114, 107, 93, 81, 56, -2, -67, -119, -166, -205, -224, -238, -243, -229, -222])
('ECG', 1763927230041814342, [-224, -215, -205, -201, -196, -191, -194, -194, -175, -149, -156, -161, -147, -140, -147, -161, -166, -147, -135, -147, -147, -140, -152, -161, -149, -145, -147, -142, -145, -152, -149, -138, -135, -135, -124, -116, -124, -128, -124, -131, -131, -119, -119, -121, -116, -112, -119, -128, -124, -126, -128, -114, -105, -119, -128, -114, -107, -114, -114, -102, -95, -100, -95, -77, -81, -105, -109, -107, -128, -135, -121, -119, -166])
('ECG', 1763927230603345542, [-229, -84, 458, 1139, 1319, 390, -718, -524, 21, -147, -248, -81, -95, -152, -91, -65, -81, -63, -46, -53, -37, -7, 7, 18, 37, 53, 79, 107, 121, 128, 131, 128, 112, 88, 56, 4, -58, -112, -145, -177, -212, -229, -233, -238, -231, -224, -224, -222, -208, -194, -194, -194, -189, -177, -168, -166, -161, -149, -147, -152, -149, -154, -152, -142, -152, -166, -159, -147, -147, -147, -149, -149, -152])
('ECG', 1763927231164861482, [-154, -152, -145, -142, -145, -140, -138, -142, -145, -140, -131, -131, -135, -133, -116, -107, -109, -109, -114, -119, -100, -84, -88, -100, -105, -102, -98, -100, -107, -109, -95, -84, -84, -88, -91, -84, -77, -91, -105, -107, -112, -112, -102, -102, -124, -180, -161, 191, 861, 1349, 868, -376, -727, -124, -30, -250, -135, -60, -135, -124, -79, -79, -70, -53, -46, -35, -18, -9, 2, 23, 49, 72, 84])
('ECG', 1763927231726377424, [98, 119, 133, 126, 112, 102, 84, 37, -21, -77, -128, -177, -201, -205, -212, -219, -222, -229, -215, -198, -201, -201, -191, -182, -177, -173, -166, -156, -147, -161, -168, -149, -138, -145, -156, -161, -154, -145, -145, -145, -138, -138, -147, -156, -156, -149, -142, -140, -147, -147, -133, -126, -135, -138, -131, -133, -138, -135, -126, -119, -126, -135, -128, -116, -119, -124, -114, -102, -107, -107, -105, -114, -116])
('ECG', 1763927232287908624, [-109, -109, -100, -86, -86, -81, -74, -86, -88, -81, -91, -98, -88, -93, -131, -203, -161, 238, 912, 1357, 790, -503, -781, -131, -63, -262, -124, -65, -131, -88, -49, -72, -65, -37, -28, -23, -11, 4, 21, 32, 49, 72, 93, 114, 128, 131, 126, 114, 98, 70, 21, -37, -93, -145, -194, -224, -236, -243, -250, -240, -231, -233, -238, -231, -215, -201, -196, -189, -182, -184, -173, -152, -154])
('ECG', 1763927232849409306, [-170, -163, -145, -149, -163, -159, -152, -152, -154, -163, -166, -147, -142, -159, -163, -152, -149, -154, -145, -135, -147, -156, -147, -138, -138, -140, -138, -138, -142, -131, -119, -126, -135, -135, -133, -133, -126, -121, -124, -114, -109, -121, -126, -124, -128, -126, -107, -93, -102, -105, -79, -74, -98, -98, -100, -119, -121, -114, -124, -168, -224, -77, 477, 1186, 1335, 311, -793, -514, 18, -170, -243, -79, -105])
('ECG', 1763927233410945592, [-149, -86, -81, -102, -65, -46, -56, -35, 0, 14, 25, 42, 60, 81, 100, 112, 126, 128, 109, 95, 81, 46, -4, -56, -116, -170, -205, -219, -224, -231, -245, -245, -240, -236, -222, -217, -212, -198, -189, -191, -184, -166, -156, -163, -170, -170, -161, -149, -156, -161, -145, -142, -156, -154, -147, -154, -159, -149, -142, -140, -147, -149, -140, -135, -142, -142, -138, -138, -147, -142, -131, -140, -145])
('ECG', 1763927233972471706, [-131, -124, -121, -116, -116, -121, -128, -128, -124, -114, -121, -126, -112, -105, -114, -119, -105, -91, -93, -100, -93, -81, -84, -98, -102, -109, -114, -107, -100, -119, -168, -226, -95, 418, 1111, 1359, 481, -694, -573, 9, -133, -273, -107, -95, -154, -105, -86, -105, -74, -49, -53, -30, -2, -7, 2, 30, 51, 74, 93, 102, 112, 116, 119, 109, 95, 67, 18, -49, -116, -161, -189, -219, -245])
('ECG', 1763927234534002906, [-252, -250, -238, -229, -226, -226, -215, -205, -215, -205, -173, -173, -189, -170, -156, -163, -166, -163, -166, -159, -152, -156, -161, -154, -145, -149, -152, -149, -154, -156, -154, -159, -159, -145, -135, -140, -147, -149, -145, -142, -138, -126, -124, -128, -131, -131, -124, -119, -131, -133, -121, -112, -107, -109, -126, -131, -114, -102, -107, -100, -81, -79, -91, -102, -116, -124, -124, -119, -109, -107, -126, -191, -198])
('ECG', 1763927235095503588, [142, 818, 1364, 956, -362, -846, -203, -23, -257, -149, -51, -128, -119, -65, -70, -58, -32, -37, -35, -14, -2, 14, 39, 51, 74, 107, 116, 119, 133, 140, 133, 107, 70, 32, -14, -84, -147, -187, -205, -224, -240, -245, -245, -259, -262, -240, -222, -219, -212, -198, -184, -182, -184, -182, -173, -163, -161, -170, -173, -168, -163, -156, -156, -170, -180, -166, -159, -166, -161, -159, -168, -163, -156])
('ECG', 1763927235657060218, [-156, -147, -152, -173, -175, -152, -140, -142, -133, -126, -135, -138, -126, -124, -124, -109, -98, -98, -102, -102, -100, -116, -135, -126, -114, -116, -112, -133, -210, -161, 280, 985, 1385, 664, -669, -788, -102, -98, -264, -105, -51, -124, -98, -56, -67, -63, -44, -35, -25, -11, 7, 30, 49, 72, 93, 109, 116, 131, 142, 149, 142, 114, 65, 4, -65, -133, -184, -215, -236, -255, -262, -255, -250])
('ECG', 1763927236218565988, [-250, -243, -238, -240, -226, -205, -201, -203, -196, -182, -170, -173, -173, -161, -161, -166, -163, -156, -152, -152, -147, -147, -159, -161, -152, -152, -159, -159, -154, -145, -145, -152, -152, -145, -145, -147, -147, -140, -131, -140, -147, -142, -140, -133, -121, -126, -119, -107, -128, -154, -156, -140, -135, -145, -161, -212, -245, 11, 662, 1321, 1193, -84, -938, -379, 14, -252, -233, -81, -140, -163, -102, -98, -100])
('ECG', 1763927236780097188, [-72, -65, -65, -42, -23, -16, 4, 35, 70, 105, 124, 135, 149, 154, 147, 131, 93, 37, -30, -95, -142, -177, -208, -233, -243, -238, -240, -243, -219, -212, -226, -215, -203, -210, -198, -180, -180, -187, -177, -156, -152, -159, -154, -147, -147, -152, -156, -159, -159, -159, -156, -147, -138, -133, -133, -147, -152, -133, -138, -154, -142, -135, -140, -133, -138, -147, -133, -124, -128, -114, -102, -112, -119])
('ECG', 1763927237341608042, [-116, -128, -140, -135, -121, -116, -128, -170, -245, -168, 294, 1024, 1471, 755, -645, -781, -60, -93, -299, -116, -72, -161, -116, -74, -93, -79, -46, -39, -35, -18, -4, 16, 35, 49, 86, 119, 135, 147, 149, 138, 131, 109, 67, 7, -58, -121, -173, -210, -236, -259, -259, -240, -245, -248, -231, -233, -229, -201, -196, -212, -198, -180, -173, -159, -159, -170, -161, -149, -152, -135, -128, -147, -142])
('ECG', 1763927237903129070, [-138, -147, -140, -133, -147, -149, -138, -133, -124, -114, -126, -133, -116, -112, -131, -133, -116, -124, -133, -124, -112, -112, -121, -133, -124, -109, -116, -112, -88, -86, -105, -121, -133, -135, -116, -100, -100, -116, -177, -259, -124, 437, 1207, 1518, 526, -839, -692, -7, -156, -292, -105, -105, -163, -102, -81, -109, -91, -60, -53, -42, -23, -7, 14, 37, 65, 93, 114, 128, 142, 149, 152, 135, 100])
('ECG', 1763927238464650096, [67, 11, -70, -135, -177, -217, -238, -238, -240, -240, -233, -236, -226, -215, -217, -217, -208, -196, -189, -182, -177, -177, -170, -163, -147, -133, -126, -126, -135, -142, -142, -145, -147, -145, -149, -149, -133, -131, -135, -133, -135, -138, -133, -142, -145, -126, -126, -145, -140, -121, -124, -128, -124, -124, -121, -107, -105, -116, -119, -114, -114, -116, -107, -107, -114, -114, -112, -107, -105, -116, -121, -102, -91])
('ECG', 1763927239026186382, [-95, -91, -88, -100, -114, -119, -119, -114, -107, -116, -163, -240, -189, 259, 1029, 1572, 938, -545, -842, -95, -56, -315, -159, -81, -170, -140, -95, -112, -102, -67, -53, -51, -44, -23, -4, 4, 23, 46, 63, 81, 105, 116, 105, 91, 88, 60, 7, -46, -100, -163, -203, -217, -229, -231, -231, -233, -231, -219, -212, -205, -201, -198, -191, -187, -184, -177, -173, -170, -166, -163, -161, -152, -145])
('ECG', 1763927239587692152, [-149, -156, -156, -152, -149, -147, -149, -142, -133, -138, -145, -138, -133, -131, -126, -124, -116, -112, -119, -124, -121, -119, -119, -121, -124, -114, -116, -126, -121, -116, -124, -124, -119, -116, -112, -112, -116, -114, -114, -119, -102, -84, -88, -86, -74, -86, -109, -116, -119, -116, -107, -112, -163, -236, -124, 404, 1158, 1513, 685, -624, -636, -7, -126, -304, -128, -107, -182, -133, -98, -112, -91, -60, -58])
('ECG', 1763927240149223352, [-58, -42, -23, 0, 30, 56, 67, 88, 124, 149, 152, 140, 133, 124, 91, 30, -35, -91, -152, -198, -215, -215, -224, -238, -224, -201, -203, -215, -205, -191, -187, -184, -180, -161, -147, -156, -163, -152, -142, -140, -135, -142, -147, -142, -142, -142, -142, -140, -131, -135, -149, -140, -131, -140, -152, -154, -145, -128, -124, -133, -138, -131, -121, -124, -128, -128, -131, -121, -116, -119, -121, -126, -128])
('ECG', 1763927240710754552, [-114, -109, -121, -126, -121, -121, -124, -124, -114, -107, -112, -109, -93, -81, -88, -84, -74, -91, -114, -119, -112, -100, -102, -109, -140, -219, -191, 212, 921, 1464, 1022, -313, -772, -128, 0, -269, -163, -65, -152, -138, -74, -86, -93, -65, -46, -42, -30, -11, 2, 18, 39, 60, 74, 100, 119, 126, 126, 121, 109, 81, 30, -35, -102, -154, -189, -212, -233, -245, -248, -240, -229, -222, -224])
('ECG', 1763927241272270492, [-222, -215, -212, -201, -189, -191, -194, -189, -173, -161, -163, -170, -161, -154, -161, -152, -135, -147, -166, -147, -128, -142, -154, -145, -140, -138, -133, -138, -142, -140, -140, -138, -131, -135, -142, -133, -128, -138, -142, -133, -116, -116, -126, -121, -109, -114, -116, -109, -112, -116, -107, -107, -121, -119, -107, -105, -112, -112, -109, -109, -114, -109, -86, -72, -79, -77, -74, -93, -105, -95, -98, -105, -112])
('ECG', 1763927241833786434, [-119, -138, -203, -187, 182, 858, 1380, 966, -304, -753, -142, -4, -255, -154, -67, -142, -124, -72, -91, -93, -63, -56, -51, -28, -16, -14, 2, 30, 53, 67, 74, 88, 105, 109, 105, 93, 63, 16, -30, -81, -145, -196, -224, -238, -240, -248, -248, -240, -238, -238, -229, -215, -208, -210, -198, -182, -187, -194, -182, -173, -175, -177, -175, -173, -166, -166, -170, -166, -161, -168, -168, -166, -166])
('ECG', 1763927242395317634, [-156, -152, -163, -166, -152, -149, -149, -142, -145, -145, -133, -128, -131, -121, -119, -128, -133, -126, -121, -126, -131, -126, -121, -126, -126, -126, -116, -98, -98, -100, -100, -95, -86, -100, -128, -131, -107, -100, -98, -112, -170, -212, 16, 612, 1233, 1162, 7, -872, -404, 7, -222, -208, -53, -112, -138, -74, -67, -74, -42, -35, -46, -18, 4, 4, 25, 56, 72, 91, 109, 128, 138, 142, 140])
('ECG', 1763927242956848832, [124, 95, 58, 0, -74, -138, -170, -189, -219, -248, -248, -236, -238, -236, -229, -226, -212, -194, -182, -182, -177, -177, -175, -166, -168, -170, -161, -161, -166, -161, -161, -161, -163, -168, -161, -161, -170, -166, -161, -163, -154, -154, -163, -152, -142, -156, -168, -156, -140, -131, -145, -159, -145, -124, -112, -114, -109, -107, -126, -140, -135, -124, -119, -128, -140, -166, -233, -159, 320, 1043, 1375, 528, -776])
('ECG', 1763927243518349516, [-753, -88, -147, -252, -58, -58, -138, -86, -49, -53, -39, -30, -28, -11, 4, 23, 37, 49, 70, 100, 121, 133, 142, 149, 152, 145, 124, 65, -14, -77, -128, -180, -217, -238, -245, -245, -248, -259, -266, -248, -217, -208, -210, -208, -196, -184, -175, -170, -175, -184, -182, -170, -166, -161, -154, -154, -159, -161, -159, -154, -152, -159, -163, -152, -145, -154, -159, -147, -149, -156, -147, -145, -154])
('ECG', 1763927244079880716, [-154, -135, -116, -116, -119, -107, -105, -133, -147, -131, -131, -142, -135, -133, -191, -231, 39, 683, 1303, 1109, -175, -947, -355, -2, -257, -203, -65, -133, -133, -74, -88, -86, -39, -32, -46, -35, -4, 14, 21, 32, 63, 91, 105, 109, 114, 121, 124, 114, 77, 18, -37, -93, -149, -184, -212, -243, -243, -236, -240, -238, -226, -222, -208, -191, -194, -198, -184, -175, -175, -161, -161, -180, -177])
('ECG', 1763927244641381398, [-159, -154, -156, -156, -154, -161, -166, -161, -156, -156, -149, -142, -147, -149, -140, -145, -161, -154, -140, -147, -154, -145, -138, -133, -128, -119, -114, -126, -140, -140, -133, -133, -140, -161, -224, -243, 93, 821, 1434, 1052, -315, -875, -201, 7, -290, -201, -74, -159, -156, -88, -100, -109, -79, -58, -44, -30, -23, -9, 9, 32, 46, 63, 93, 109, 107, 105, 98, 74, 39, -11, -84, -147, -187])
('ECG', 1763927245202912598, [-215, -245, -262, -255, -245, -245, -243, -231, -215, -212, -212, -196, -184, -184, -177, -166, -163, -163, -156, -154, -161, -161, -152, -154, -159, -145, -138, -142, -147, -145, -138, -126, -121, -128, -133, -140, -135, -124, -114, -109, -112, -116, -107, -105, -121, -128, -119, -112, -114, -128, -182, -231, -7, 631, 1300, 1204, 0, -875, -390, 23, -224, -222, -65, -119, -145, -84, -88, -102, -70, -51, -51, -39, -21])
('ECG', 1763927245764438710, [-2, 18, 37, 60, 84, 95, 105, 119, 121, 109, 86, 56, 16, -49, -121, -173, -201, -215, -236, -238, -226, -219, -222, -217, -201, -191, -191, -187, -177, -168, -161, -161, -170, -168, -159, -156, -152, -147, -154, -161, -154, -147, -138, -140, -154, -156, -145, -140, -142, -142, -138, -145, -156, -156, -140, -128, -121, -116, -121, -109, -109, -140, -154, -138, -124, -124, -138, -166, -203, -72, 439, 1111, 1240])
('ECG', 1763927246325944480, [266, -786, -538, -14, -161, -219, -63, -95, -147, -84, -58, -79, -63, -32, -28, -18, 11, 30, 30, 42, 72, 93, 109, 124, 124, 116, 112, 102, 84, 37, -30, -88, -131, -170, -203, -222, -226, -226, -233, -233, -224, -212, -203, -189, -175, -166, -161, -168, -177, -175, -166, -161, -166, -163, -159, -168, -170, -159, -156, -161, -159, -149, -147, -149, -149, -152, -161, -163, -138, -119, -121, -126, -121])
('ECG', 1763927246887475680, [-109, -112, -133, -142, -135, -142, -147, -142, -170, -226, -105, 407, 1087, 1307, 390, -809, -666, -51, -147, -222, -49, -63, -109, -53, -51, -70, -28, -4, -21, -16, 14, 28, 32, 63, 86, 91, 105, 121, 119, 114, 114, 95, 58, 11, -37, -88, -138, -182, -222, -243, -233, -219, -224, -224, -217, -219, -212, -187, -177, -180, -173, -166, -168, -170, -168, -168, -168, -166, -163, -168, -166, -156, -163])
('ECG', 1763927247448986534, [-168, -156, -149, -147, -149, -154, -149, -147, -147, -140, -140, -142, -128, -116, -116, -107, -88, -102, -121, -116, -121, -131, -121, -112, -147, -224, -219, 124, 804, 1366, 949, -425, -931, -231, -30, -269, -149, -58, -140, -102, -37, -56, -46, -16, -28, -18, 18, 25, 23, 46, 74, 81, 84, 114, 131, 112, 98, 98, 79, 39, -7, -58, -121, -168, -198, -226, -238, -231, -222, -219, -215, -210, -208])
('ECG', 1763927248010507562, [-191, -173, -177, -182, -170, -168, -182, -175, -149, -142, -154, -161, -156, -152, -152, -159, -166, -159, -149, -163, -170, -152, -149, -163, -156, -145, -147, -149, -156, -161, -154, -140, -128, -119, -124, -131, -131, -135, -140, -133, -131, -131, -147, -205, -255, -39, 584, 1258, 1202, 0, -928, -425, 25, -236, -240, -72, -128, -166, -91, -56, -67, -60, -42, -28, -21, -7, 11, 30, 46, 56, 74, 93, 93])
('ECG', 1763927248572028588, [93, 105, 88, 56, 25, -14, -60, -107, -161, -194, -203, -219, -236, -226, -215, -208, -205, -201, -191, -177, -177, -180, -175, -163, -152, -149, -149, -149, -149, -152, -149, -145, -142, -145, -147, -149, -152, -147, -140, -147, -154, -149, -147, -145, -142, -140, -140, -138, -140, -142, -138, -126, -107, -93, -100, -107, -88, -86, -121, -128, -102, -102, -121, -126, -159, -219, -88, 442, 1123, 1275, 304, -776, -524])
('ECG', 1763927249133539444, [23, -152, -238, -79, -93, -133, -79, -65, -74, -53, -35, -28, -16, 2, 16, 28, 46, 65, 79, 91, 102, 109, 102, 95, 81, 46, 14, -25, -91, -149, -175, -201, -231, -231, -222, -229, -226, -210, -201, -198, -191, -180, -175, -173, -159, -152, -156, -149, -142, -147, -147, -154, -154, -140, -135, -145, -152, -149, -147, -142, -145, -149, -147, -145, -152, -152, -147, -142, -131, -126, -131, -126, -126])
('ECG', 1763927249695040126, [-131, -124, -121, -126, -126, -126, -128, -116, -98, -86, -84, -79, -77, -86, -102, -114, -119, -112, -102, -100, -133, -208, -124, 357, 1027, 1289, 488, -664, -594, -4, -107, -243, -81, -79, -142, -95, -67, -77, -51, -35, -32, -4, 9, 11, 32, 44, 49, 65, 79, 79, 84, 91, 84, 74, 63, 30, -25, -84, -128, -163, -198, -217, -224, -231, -231, -217, -208, -205, -205, -196, -177, -166, -166])
('ECG', 1763927250256571326, [-168, -166, -156, -149, -149, -154, -152, -149, -147, -145, -135, -133, -138, -140, -140, -138, -131, -135, -145, -138, -131, -135, -142, -145, -128, -124, -135, -135, -131, -121, -100, -98, -109, -105, -95, -95, -95, -100, -105, -105, -105, -102, -100, -98, -88, -70, -67, -67, -72, -100, -121, -112, -98, -100, -114, -133, -189, -191, 138, 800, 1310, 884, -386, -816, -173, -7, -245, -152, -56, -119, -107, -70, -86])
('ECG', 1763927250818082180, [-74, -46, -37, -25, -16, -11, 7, 32, 42, 51, 72, 93, 93, 84, 86, 88, 65, 32, 7, -37, -93, -140, -170, -184, -205, -222, -212, -201, -212, -208, -182, -173, -182, -180, -173, -168, -154, -147, -152, -154, -152, -159, -159, -145, -147, -159, -161, -161, -152, -140, -147, -147, -126, -131, -140, -131, -124, -126, -126, -131, -133, -128, -128, -131, -126, -119, -126, -133, -126, -116, -112, -100, -95])
('ECG', 1763927251379603208, [-107, -112, -121, -128, -116, -119, -138, -133, -131, -205, -224, 128, 835, 1371, 905, -437, -870, -194, -37, -252, -119, -42, -126, -98, -58, -84, -67, -30, -25, -23, -14, -2, 16, 32, 56, 81, 88, 81, 95, 102, 88, 77, 60, 28, -9, -63, -121, -161, -191, -215, -224, -233, -250, -250, -233, -219, -210, -208, -208, -196, -182, -173, -168, -168, -170, -173, -163, -142, -142, -161, -159, -147, -152])
('ECG', 1763927251941103890, [-154, -145, -138, -138, -147, -152, -147, -133, -119, -116, -131, -128, -114, -114, -116, -119, -119, -119, -119, -114, -116, -126, -124, -119, -128, -124, -107, -93, -88, -98, -102, -102, -112, -126, -126, -112, -102, -116, -156, -222, -166, 252, 945, 1368, 711, -610, -779, -91, -77, -273, -114, -67, -152, -114, -72, -93, -79, -51, -51, -44, -21, -4, 4, 16, 32, 67, 100, 100, 88, 88, 91, 81, 63])
('ECG', 1763927252502635090, [39, -4, -67, -114, -154, -189, -198, -205, -222, -222, -219, -212, -203, -203, -191, -182, -175, -156, -149, -149, -142, -133, -135, -147, -152, -128, -126, -147, -147, -133, -135, -133, -128, -133, -140, -145, -147, -142, -135, -140, -142, -133, -133, -138, -138, -126, -119, -126, -128, -128, -133, -135, -135, -124, -109, -124, -133, -124, -126, -126, -107, -102, -102, -100, -100, -102, -100, -102, -116, -119, -109, -116, -154])
('ECG', 1763927253064135772, [-217, -140, 315, 1027, 1380, 573, -685, -650, -9, -112, -276, -100, -81, -159, -114, -79, -93, -77, -51, -49, -42, -23, -7, 11, 23, 37, 60, 81, 86, 88, 95, 88, 67, 51, 28, -23, -86, -135, -175, -205, -222, -236, -236, -226, -231, -231, -208, -191, -189, -184, -180, -180, -166, -154, -154, -159, -159, -152, -138, -126, -128, -135, -131, -126, -138, -142, -138, -145, -149, -140, -135, -140, -138])
('ECG', 1763927253625666972, [-140, -142, -133, -124, -124, -128, -131, -119, -105, -112, -119, -116, -112, -105, -107, -112, -105, -114, -135, -128, -112, -105, -100, -93, -91, -93, -102, -119, -124, -119, -116, -121, -145, -208, -201, 121, 765, 1305, 973, -264, -788, -191, 0, -257, -180, -74, -149, -149, -93, -100, -93, -51, -42, -53, -37, -11, 2, 14, 35, 49, 63, 81, 95, 100, 98, 95, 84, 46, -2, -63, -124, -166, -194])
('ECG', 1763927254187167654, [-215, -233, -238, -233, -226, -212, -205, -215, -210, -187, -180, -187, -168, -140, -145, -156, -145, -135, -142, -145, -138, -140, -140, -135, -140, -149, -152, -140, -135, -147, -138, -119, -124, -140, -145, -138, -126, -124, -138, -138, -124, -124, -128, -116, -102, -107, -114, -109, -109, -119, -121, -109, -107, -124, -131, -121, -112, -124, -131, -109, -95, -93, -84, -84, -95, -112, -124, -124, -119, -124, -126, -131, -184])
('ECG', 1763927254748683594, [-208, 91, 746, 1303, 977, -278, -844, -236, 0, -250, -173, -58, -131, -119, -53, -70, -84, -53, -46, -42, -11, 7, 11, 28, 51, 67, 79, 88, 100, 105, 102, 100, 86, 53, 11, -28, -70, -114, -156, -191, -212, -217, -217, -222, -219, -201, -198, -201, -194, -180, -166, -170, -170, -156, -154, -161, -152, -145, -149, -147, -145, -147, -154, -161, -156, -152, -156, -163, -154, -145, -149, -154, -149])
('ECG', 1763927255310199536, [-147, -152, -147, -138, -147, -152, -135, -128, -138, -140, -138, -131, -119, -121, -140, -131, -114, -109, -107, -102, -98, -107, -138, -149, -135, -128, -133, -135, -154, -219, -156, 313, 1017, 1328, 507, -746, -708, -56, -128, -259, -81, -70, -145, -95, -58, -79, -65, -42, -37, -28, -9, 7, 18, 37, 65, 74, 77, 95, 107, 102, 95, 88, 65, 28, -18, -72, -121, -166, -203, -222, -233, -248, -248])
('ECG', 1763927255871700218, [-231, -226, -229, -222, -210, -191, -177, -175, -173, -166, -166, -166, -154, -145, -156, -159, -142, -138, -145, -142, -138, -140, -145, -145, -135, -119, -131, -156, -152, -135, -140, -145, -133, -128, -138, -133, -119, -124, -131, -124, -126, -140, -138, -131, -128, -124, -116, -105, -98, -114, -135, -128, -126, -140, -135, -135, -196, -245, -14, 620, 1268, 1162, -37, -891, -369, 30, -245, -238, -72, -131, -154, -88, -93])
('ECG', 1763927256433231418, [-105, -67, -46, -49, -35, -14, 2, 9, 25, 53, 79, 98, 102, 98, 102, 109, 88, 56, 11, -53, -109, -159, -196, -215, -224, -226, -224, -219, -217, -219, -212, -203, -196, -187, -177, -177, -180, -168, -156, -152, -152, -147, -145, -152, -154, -140, -147, -161, -147, -135, -152, -161, -147, -138, -140, -142, -149, -152, -133, -126, -138, -138, -135, -138, -133, -131, -126, -126, -138, -147, -135, -114, -107])
('ECG', 1763927256994737186, [-119, -116, -102, -102, -124, -140, -133, -119, -107, -119, -184, -231, -4, 612, 1272, 1221, 51, -858, -383, 51, -208, -215, -46, -102, -135, -70, -72, -88, -53, -35, -35, -25, -21, -4, 30, 53, 60, 81, 105, 116, 116, 116, 102, 70, 37, 2, -51, -116, -166, -196, -210, -219, -231, -238, -231, -226, -231, -222, -198, -191, -191, -184, -173, -170, -166, -156, -149, -142, -152, -159, -147, -142, -145])
('ECG', 1763927257556263300, [-133, -133, -142, -142, -140, -135, -135, -145, -145, -135, -131, -131, -133, -131, -128, -128, -121, -119, -131, -124, -114, -116, -116, -112, -116, -126, -126, -109, -93, -88, -91, -98, -107, -114, -124, -121, -114, -112, -116, -138, -201, -161, 243, 919, 1298, 655, -556, -699, -67, -63, -266, -124, -77, -161, -128, -79, -95, -88, -63, -63, -58, -37, -16, 0, 21, 39, 58, 74, 88, 93, 93, 95, 91])
('ECG', 1763927258117763982, [67, 37, -11, -79, -138, -166, -194, -224, -231, -222, -226, -229, -217, -205, -205, -203, -196, -182, -175, -177, -173, -159, -149, -156, -154, -140, -140, -149, -152, -149, -149, -147, -133, -128, -138, -142, -142, -135, -128, -133, -142, -140, -142, -140, -131, -131, -138, -133, -128, -135, -142, -133, -119, -119, -124, -109, -100, -114, -131, -128, -119, -121, -124, -121, -152, -212, -58, 491, 1120, 1141, 109, -823, -465])
('ECG', 1763927258679285008, [-2, -189, -205, -58, -119, -154, -79, -67, -88, -60, -35, -39, -37, -14, 11, 25, 30, 51, 86, 98, 98, 109, 107, 88, 77, 63, 18, -51, -112, -142, -170, -205, -229, -238, -233, -231, -231, -219, -205, -208, -205, -189, -177, -168, -161, -161, -173, -180, -166, -145, -149, -152, -140, -142, -138, -126, -131, -138, -131, -128, -131, -131, -131, -128, -126, -126, -133, -138, -131, -116, -119, -116, -107])
('ECG', 1763927259240795864, [-105, -102, -109, -126, -133, -124, -114, -107, -100, -133, -198, -194, 116, 767, 1310, 917, -386, -896, -259, -42, -238, -119, -32, -109, -98, -51, -60, -60, -37, -25, -23, -7, 18, 28, 35, 60, 74, 81, 100, 119, 121, 116, 95, 53, 23, 0, -63, -131, -166, -196, -219, -233, -255, -262, -240, -224, -229, -226, -203, -187, -187, -180, -173, -175, -175, -170, -168, -170, -173, -175, -168, -161, -163])
('ECG', 1763927259802327062, [-168, -170, -175, -168, -159, -156, -159, -156, -142, -126, -135, -149, -131, -114, -133, -147, -126, -116, -119, -112, -107, -107, -116, -126, -133, -140, -131, -121, -128, -149, -217, -229, 107, 793, 1324, 868, -463, -900, -212, -30, -259, -142, -53, -140, -114, -51, -74, -77, -44, -42, -42, -18, -2, -4, 11, 46, 60, 58, 81, 98, 88, 74, 70, 51, 14, -42, -102, -149, -189, -226, -248, -248, -245])
('ECG', 1763927260363827746, [-252, -252, -238, -229, -224, -208, -201, -203, -198, -184, -177, -170, -159, -159, -159, -156, -152, -147, -145, -147, -161, -166, -154, -142, -152, -161, -154, -140, -138, -145, -138, -124, -131, -133, -114, -109, -114, -114, -114, -114, -116, -121, -121, -119, -112, -100, -95, -93, -84, -98, -128, -133, -112, -105, -114, -124, -177, -236, -42, 545, 1202, 1237, 166, -811, -432, 46, -191, -243, -70, -109, -159, -93, -77])
('ECG', 1763927260925338600, [-95, -77, -60, -53, -39, -25, -11, 4, 16, 39, 67, 79, 84, 91, 95, 84, 60, 37, 7, -51, -114, -154, -189, -219, -226, -224, -229, -229, -222, -217, -210, -208, -203, -191, -189, -187, -168, -159, -166, -170, -163, -154, -149, -147, -149, -149, -149, -154, -159, -156, -149, -138, -135, -145, -147, -145, -152, -152, -142, -138, -135, -135, -133, -131, -133, -121, -105, -112, -126, -126, -121, -119, -119])
('ECG', 1763927261486859628, [-105, -91, -93, -93, -84, -95, -124, -128, -114, -109, -107, -114, -161, -201, 16, 622, 1265, 1176, 23, -804, -329, 42, -210, -201, -53, -112, -135, -72, -70, -86, -58, -44, -46, -37, -9, 14, 16, 18, 46, 77, 88, 100, 112, 102, 84, 67, 46, 7, -56, -121, -159, -182, -210, -236, -240, -233, -238, -240, -229, -222, -219, -208, -198, -201, -198, -184, -168, -156, -159, -163, -147, -140, -154])
('ECG', 1763927262048360310, [-159, -152, -154, -152, -142, -145, -152, -149, -140, -133, -135, -140, -135, -128, -121, -112, -102, -109, -126, -116, -102, -109, -116, -112, -107, -102, -98, -93, -86, -81, -88, -105, -116, -109, -107, -119, -124, -133, -187, -149, 259, 947, 1326, 627, -622, -715, -70, -86, -252, -91, -58, -138, -98, -58, -77, -63, -39, -44, -37, -14, 9, 21, 32, 56, 77, 88, 107, 124, 116, 95, 84, 70, 30])
('ECG', 1763927262609891510, [-23, -77, -119, -163, -201, -210, -212, -222, -233, -231, -212, -194, -184, -173, -168, -175, -170, -159, -152, -152, -147, -147, -154, -145, -119, -119, -140, -149, -152, -147, -135, -138, -147, -142, -138, -128, -116, -119, -128, -126, -119, -124, -126, -116, -116, -119, -119, -121, -119, -119, -109, -95, -102, -112, -98, -88, -102, -124, -126, -112, -105, -112, -142, -215, -166, 278, 987, 1373, 636, -671, -744, -58, -79])
('ECG', 1763927263171422708, [-255, -95, -58, -131, -93, -58, -77, -65, -30, -18, -18, -11, 7, 32, 56, 72, 81, 86, 98, 116, 114, 105, 98, 72, 28, -21, -74, -138, -184, -205, -219, -233, -238, -231, -224, -219, -224, -217, -198, -194, -196, -182, -168, -173, -168, -156, -156, -154, -149, -152, -159, -163, -161, -156, -145, -135, -140, -149, -145, -138, -138, -131, -128, -140, -140, -121, -116, -131, -135, -133, -128, -119, -119])
('ECG', 1763927263732923392, [-131, -138, -131, -121, -109, -100, -93, -100, -100, -93, -107, -126, -121, -114, -119, -133, -175, -226, -30, 566, 1230, 1233, 86, -898, -460, 18, -210, -226, -74, -131, -145, -79, -91, -91, -51, -58, -72, -39, -2, 9, 21, 32, 42, 60, 86, 95, 91, 88, 79, 67, 53, 11, -60, -107, -140, -184, -210, -219, -226, -226, -229, -233, -231, -217, -196, -191, -198, -189, -182, -182, -166, -152, -159])
('ECG', 1763927264294434246, [-156, -147, -152, -152, -147, -147, -145, -142, -149, -145, -126, -124, -140, -138, -128, -126, -126, -131, -138, -138, -126, -121, -128, -131, -128, -124, -114, -116, -124, -116, -121, -138, -135, -121, -112, -102, -102, -114, -102, -86, -109, -135, -133, -126, -128, -128, -145, -212, -173, 250, 961, 1403, 767, -545, -736, -65, -65, -290, -135, -84, -175, -135, -74, -91, -88, -58, -46, -46, -25, -2, -2, -2, 25])
('ECG', 1763927264855955274, [60, 74, 79, 86, 86, 79, 74, 60, 21, -32, -81, -128, -173, -198, -217, -233, -236, -226, -226, -226, -210, -198, -201, -203, -196, -184, -170, -161, -166, -173, -159, -147, -152, -156, -142, -142, -161, -149, -119, -121, -135, -124, -121, -135, -135, -126, -128, -133, -140, -140, -128, -119, -121, -124, -119, -112, -109, -114, -121, -121, -119, -114, -112, -116, -124, -124, -114, -107, -109, -112, -114, -124, -119])
('ECG', 1763927265417476300, [-95, -91, -100, -93, -86, -91, -100, -112, -116, -107, -102, -105, -133, -205, -152, 285, 973, 1347, 676, -547, -657, -42, -77, -271, -131, -84, -149, -107, -67, -93, -91, -56, -42, -39, -18, 4, 14, 23, 39, 56, 72, 88, 100, 105, 105, 95, 70, 42, 7, -58, -119, -152, -170, -194, -217, -222, -217, -219, -219, -215, -208, -196, -182, -168, -159, -154, -149, -145, -149, -152, -145, -140, -135])
('ECG', 1763927265978982068, [-133, -135, -138, -133, -133, -135, -138, -149, -149, -133, -119, -119, -131, -133, -124, -124, -138, -133, -126, -128, -124, -119, -124, -116, -100, -102, -114, -112, -112, -112, -107, -107, -112, -105, -84, -81, -84, -77, -77, -84, -100, -119, -112, -105, -112, -109, -128, -196, -161, 231, 903, 1340, 741, -552, -774, -95, -39, -243, -107, -58, -131, -95, -58, -72, -53, -25, -14, 4, 18, 18, 35, 63, 74])
('ECG', 1763927266540518354, [79, 102, 128, 124, 112, 114, 107, 95, 72, 16, -49, -88, -124, -166, -194, -198, -196, -191, -194, -196, -189, -175, -163, -161, -156, -138, -128, -133, -140, -133, -121, -126, -131, -124, -119, -135, -149, -135, -124, -135, -140, -131, -133, -142, -135, -131, -135, -133, -128, -131, -128, -126, -135, -135, -126, -124, -121, -116, -121, -124, -114, -119, -133, -128, -114, -112, -116, -105, -95, -102, -109, -109, -116])
('ECG', 1763927267101993606, [-131, -135, -126, -119, -138, -203, -229, 60, 722, 1321, 1052, -233, -907, -294, -4, -248, -154, -30, -124, -121, -49, -65, -77, -44, -32, -28, -7, 11, 11, 18, 49, 77, 86, 88, 100, 109, 107, 95, 79, 51, 11, -39, -95, -140, -175, -205, -219, -222, -222, -217, -215, -212, -212, -210, -189, -168, -168, -170, -159, -145, -147, -156, -154, -152, -163, -161, -147, -145, -147, -149, -152, -149, -152])
('ECG', 1763927267663519720, [-154, -147, -135, -138, -149, -156, -145, -126, -133, -135, -126, -131, -133, -119, -116, -119, -126, -135, -128, -119, -114, -112, -121, -131, -124, -107, -102, -107, -107, -107, -114, -124, -128, -119, -114, -124, -149, -210, -215, 109, 769, 1303, 926, -343, -839, -201, -9, -264, -168, -58, -131, -121, -67, -84, -91, -65, -49, -35, -16, -9, -4, 4, 28, 53, 72, 84, 86, 88, 98, 91, 72, 53, 14])
('ECG', 1763927268225020402, [-46, -100, -142, -180, -196, -208, -219, -224, -217, -210, -203, -203, -198, -187, -175, -168, -161, -156, -156, -154, -147, -152, -149, -142, -152, -159, -154, -152, -159, -154, -142, -145, -152, -147, -147, -154, -159, -152, -142, -147, -149, -145, -145, -147, -145, -145, -147, -149, -145, -138, -140, -145, -140, -140, -145, -147, -145, -140, -128, -114, -105, -105, -107, -119, -131, -131, -126, -124, -124, -149, -224, -201, 170])
('ECG', 1763927268786551602, [832, 1291, 774, -463, -751, -131, -51, -259, -149, -86, -154, -138, -93, -91, -84, -77, -72, -46, -28, -28, -14, 14, 35, 51, 63, 72, 79, 81, 77, 65, 56, 32, -23, -84, -126, -161, -201, -222, -224, -229, -233, -231, -231, -224, -212, -212, -203, -184, -177, -177, -168, -161, -154, -140, -142, -156, -154, -140, -140, -154, -152, -145, -152, -156, -152, -149, -149, -142, -140, -147, -159, -159, -145])
('ECG', 1763927269348052284, [-135, -145, -145, -140, -147, -145, -135, -138, -138, -126, -121, -128, -131, -133, -128, -116, -109, -107, -107, -105, -114, -131, -133, -135, -135, -131, -142, -198, -229, 30, 645, 1214, 1008, -168, -858, -320, 4, -233, -203, -79, -138, -140, -72, -79, -91, -65, -44, -32, -14, 2, 16, 25, 32, 56, 86, 105, 105, 98, 91, 88, 74, 51, 23, -32, -114, -163, -170, -189, -226, -236, -222, -222, -226])
