('ECG', 1747494291309393000, [9327, 9182, 9982, 10533, 10364, 10472, 10668, 10576, 10528, 10547, 10453, 10385, 10397, 10335, 10223, 10132, 10030, 9919, 9808, 9692, 9597, 9520, 9431, 9324, 9220, 9153, 9112, 9000, 8826, 8686, 8609, 8546, 8507, 8478, 8391, 8290, 8261, 8208, 8092, 8009, 7925, 7809, 7736, 7681, 7586, 7487, 7400, 7299, 7231, 7200, 7089, 6931, 6830, 6748, 6670, 6622, 6586, 6528, 6436, 6383, 6533, 6917, 7294, 7086, 6020, 5314, 5742, 6042, 5781, 5711, 5759, 5667, 5588])
('ECG', 1747494291871275156, [5549, 5486, 5423, 5387, 5346, 5281, 5225, 5191, 5138, 5066, 5012, 4962, 4891, 4846, 4804, 4727, 4647, 4594, 4522, 4418, 4338, 4292, 4217, 4118, 4048, 4002, 3949, 3867, 3782, 3753, 3736, 3659, 3569, 3538, 3521, 3461, 3395, 3349, 3287, 3226, 3188, 3127, 3084, 3057, 2987, 2914, 2876, 2820, 2760, 2726, 2694, 2634, 2566, 2535, 2520, 2462, 2378, 2332, 2315, 2264, 2187, 2160, 2168, 2097, 2010, 2006, 1986, 1911, 1848, 1817, 1793, 1742, 1684])
('ECG', 1747494292433167486, [1648, 1624, 1597, 1546, 1496, 1469, 1411, 1426, 1771, 2313, 2477, 1723, 722, 787, 1305, 1247, 1123, 1242, 1249, 1164, 1155, 1160, 1143, 1128, 1106, 1092, 1090, 1073, 1041, 1034, 1034, 1000, 974, 976, 949, 899, 872, 848, 812, 761, 705, 686, 667, 623, 601, 575, 512, 471, 466, 449, 425, 425, 418, 396, 401, 396, 352, 323, 321, 309, 309, 294, 253, 261, 282, 236, 193, 215, 229, 174, 137, 169, 157])
('ECG', 1747494292995039470, [106, 120, 118, 70, 72, 89, 67, 58, 55, 36, 38, 45, 19, 7, 2, -12, 2, 12, -12, -19, -16, -53, -77, -70, -74, -89, -96, -140, -178, -116, 142, 606, 978, 546, -548, -809, -217, -108, -287, -183, -145, -222, -195, -154, -159, -159, -174, -152, -108, -135, -154, -118, -120, -142, -125, -116, -132, -154, -171, -174, -178, -205, -246, -263, -253, -277, -333, -350, -340, -355, -386, -374, -350])
('ECG', 1747494293556911454, [-364, -381, -360, -340, -364, -379, -357, -357, -389, -381, -345, -352, -389, -391, -384, -389, -384, -389, -408, -398, -389, -415, -425, -410, -413, -408, -393, -398, -403, -408, -432, -427, -408, -422, -444, -435, -425, -427, -425, -413, -398, -396, -430, -464, -464, -456, -449, -437, -442, -459, -500, -543, -444, -74, 451, 659, -87, -1106, -961, -396, -505, -613, -444, -439, -490, -437, -427, -447, -427, -418, -415, -401, -379])
('ECG', 1747494294118783438, [-369, -389, -379, -343, -350, -372, -360, -364, -389, -386, -406, -442, -435, -432, -485, -524, -512, -509, -538, -553, -543, -543, -541, -519, -509, -517, -529, -531, -522, -514, -512, -507, -512, -524, -524, -514, -512, -522, -538, -538, -526, -526, -534, -538, -536, -529, -536, -541, -538, -538, -538, -534, -538, -538, -526, -522, -531, -534, -531, -526, -522, -526, -524, -505, -493, -497, -502, -502, -517, -538, -543, -541, -543])
('ECG', 1747494294680660510, [-543, -546, -570, -606, -514, -125, 418, 601, -176, -1189, -1017, -442, -543, -652, -505, -507, -555, -509, -495, -502, -478, -459, -456, -461, -447, -418, -420, -430, -413, -410, -422, -418, -410, -415, -430, -454, -485, -495, -497, -512, -529, -555, -580, -582, -577, -580, -572, -565, -567, -567, -563, -563, -565, -560, -551, -553, -558, -555, -553, -555, -551, -548, -558, -565, -563, -565, -570, -567, -567, -567, -565, -563, -565])
('ECG', 1747494295242527408, [-567, -565, -567, -570, -567, -565, -563, -558, -558, -567, -560, -546, -553, -570, -567, -555, -563, -570, -546, -531, -543, -536, -517, -536, -572, -572, -563, -572, -584, -572, -565, -609, -642, -480, -48, 442, 507, -357, -1261, -952, -442, -613, -688, -536, -560, -599, -536, -529, -553, -522, -500, -531, -531, -473, -444, -459, -466, -466, -461, -439, -451, -488, -493, -490, -500, -507, -531, -567, -580, -580, -587, -599, -626])
('ECG', 1747494295804399392, [-652, -650, -628, -616, -621, -628, -628, -609, -596, -613, -613, -589, -599, -618, -609, -599, -621, -609, -563, -572, -623, -626, -594, -601, -618, -606, -604, -609, -606, -604, -601, -611, -613, -618, -628, -601, -575, -594, -609, -606, -611, -604, -582, -596, -599, -560, -575, -616, -584, -536, -543, -551, -541, -565, -604, -582, -553, -587, -601, -582, -642, -621, -256, 287, 630, 176, -964, -1264, -616, -495, -756, -642, -512])
('ECG', 1747494296366271376, [-594, -601, -548, -555, -551, -548, -565, -517, -471, -483, -493, -471, -447, -468, -497, -461, -442, -480, -495, -495, -502, -534, -594, -599, -572, -596, -613, -604, -635, -647, -626, -630, -647, -642, -630, -613, -594, -601, -623, -609, -587, -601, -635, -626, -575, -587, -662, -621, -524, -570, -652, -642, -601, -601, -635, -621, -592, -623, -628, -606, -609, -596, -594, -616, -618, -609, -611, -609, -606, -623, -635, -609, -587])
('ECG', 1747494296928143360, [-599, -596, -572, -548, -553, -587, -601, -606, -618, -611, -606, -609, -592, -633, -693, -526, -67, 422, 427, -488, -1310, -928, -476, -681, -717, -553, -596, -633, -558, -567, -609, -565, -522, -526, -538, -529, -495, -483, -507, -502, -468, -468, -488, -502, -519, -514, -526, -555, -563, -580, -601, -613, -647, -664, -640, -652, -671, -659, -671, -674, -604, -594, -652, -638, -604, -628, -647, -630, -618, -638, -659, -630, -596])
('ECG', 1747494297490015344, [-618, -647, -623, -599, -628, -671, -645, -604, -638, -669, -640, -616, -630, -645, -613, -604, -633, -618, -613, -647, -642, -613, -606, -611, -616, -623, -628, -628, -618, -604, -596, -575, -555, -589, -609, -592, -596, -613, -628, -621, -596, -609, -655, -693, -647, -343, 152, 454, 2, -1017, -1237, -652, -551, -739, -626, -551, -623, -621, -572, -575, -592, -570, -536, -534, -534, -519, -507, -502, -517, -509, -480, -497, -522])
('ECG', 1747494298051887330, [-497, -502, -551, -565, -563, -589, -606, -601, -630, -652, -635, -647, -669, -645, -638, -659, -647, -618, -630, -638, -613, -626, -655, -638, -621, -626, -623, -638, -645, -630, -642, -638, -606, -633, -659, -621, -621, -655, -642, -630, -640, -633, -633, -655, -647, -609, -616, -638, -630, -626, -628, -609, -606, -638, -630, -596, -626, -655, -621, -592, -592, -594, -577, -563, -596, -626, -616, -638, -652, -613, -601, -657, -722])
('ECG', 1747494298613738968, [-621, -205, 302, 413, -321, -1225, -1065, -543, -630, -732, -594, -587, -638, -599, -553, -563, -567, -546, -572, -592, -514, -468, -505, -509, -490, -488, -500, -514, -507, -509, -534, -560, -575, -555, -551, -584, -623, -645, -640, -647, -671, -681, -674, -645, -613, -626, -638, -623, -618, -621, -626, -638, -647, -652, -645, -616, -599, -618, -647, -650, -621, -604, -618, -642, -635, -616, -616, -630, -635, -630, -635, -628, -599])
('ECG', 1747494299175616038, [-596, -621, -616, -599, -606, -613, -609, -606, -594, -584, -594, -604, -613, -596, -567, -565, -563, -553, -555, -565, -592, -599, -577, -582, -609, -604, -596, -626, -664, -551, -116, 381, 393, -442, -1266, -966, -476, -626, -698, -563, -577, -596, -529, -541, -584, -563, -551, -536, -493, -495, -522, -490, -461, -493, -522, -478, -437, -476, -519, -524, -534, -551, -577, -594, -551, -543, -618, -657, -635, -638, -664, -684, -664])
('ECG', 1747494299737472764, [-609, -582, -623, -645, -616, -621, -623, -584, -589, -635, -638, -604, -628, -669, -635, -589, -611, -630, -609, -609, -638, -635, -616, -613, -628, -638, -616, -606, -635, -626, -601, -623, -621, -580, -596, -640, -630, -621, -623, -587, -572, -604, -635, -638, -606, -577, -577, -575, -572, -572, -577, -606, -640, -638, -623, -611, -601, -638, -681, -541, -96, 418, 413, -505, -1319, -961, -495, -669, -722, -570, -596, -647, -582])
('ECG', 1747494300299344748, [-555, -584, -565, -546, -572, -551, -512, -529, -522, -490, -500, -500, -507, -536, -519, -500, -529, -560, -577, -594, -592, -609, -659, -676, -645, -621, -638, -671, -676, -693, -705, -640, -592, -640, -657, -626, -635, -645, -635, -662, -681, -642, -604, -611, -630, -626, -642, -686, -684, -633, -618, -638, -640, -623, -623, -652, -667, -659, -667, -638, -611, -628, -611, -592, -633, -664, -655, -638, -613, -599, -626, -623, -572])
('ECG', 1747494300861186214, [-570, -606, -599, -594, -638, -647, -609, -616, -640, -628, -616, -640, -684, -546, -82, 418, 350, -594, -1319, -901, -505, -698, -698, -572, -623, -626, -572, -601, -594, -514, -514, -572, -563, -519, -502, -493, -497, -502, -480, -493, -524, -514, -517, -543, -567, -563, -546, -580, -623, -621, -633, -669, -664, -640, -642, -650, -655, -662, -642, -626, -642, -630, -611, -633, -633, -628, -650, -640, -609, -616, -635, -630, -604])
('ECG', 1747494301423058200, [-606, -679, -698, -621, -594, -626, -626, -633, -659, -640, -592, -594, -630, -628, -623, -638, -628, -613, -623, -616, -599, -623, -635, -611, -611, -609, -577, -567, -577, -592, -611, -613, -623, -650, -645, -618, -626, -681, -667, -389, 111, 476, 79, -1007, -1334, -693, -505, -720, -638, -548, -616, -613, -560, -555, -546, -505, -471, -447, -427, -432, -444, -439, -435, -427, -427, -442, -464, -485, -485, -473, -500, -541, -551])
('ECG', 1747494301984909838, [-526, -538, -604, -633, -609, -606, -640, -650, -628, -640, -647, -582, -575, -650, -638, -589, -623, -642, -623, -613, -596, -609, -650, -647, -635, -667, -657, -596, -609, -659, -650, -633, -674, -686, -635, -626, -662, -662, -626, -618, -642, -645, -626, -623, -633, -635, -630, -633, -638, -621, -587, -580, -604, -616, -616, -630, -650, -655, -645, -635, -633, -652, -674, -519, -74, 372, 273, -633, -1329, -916, -483, -657, -693])
('ECG', 1747494302546771650, [-560, -587, -623, -577, -563, -575, -560, -548, -541, -526, -517, -512, -502, -488, -485, -488, -490, -497, -514, -538, -558, -558, -563, -572, -570, -584, -621, -633, -642, -679, -684, -655, -657, -681, -669, -640, -652, -674, -662, -657, -664, -657, -664, -676, -657, -650, -669, -671, -662, -674, -696, -671, -645, -669, -669, -647, -662, -669, -652, -647, -647, -642, -638, -633, -628, -626, -616, -601, -594, -599, -596, -596, -618])
('ECG', 1747494303108613116, [-642, -645, -623, -616, -628, -647, -681, -642, -367, 89, 369, -67, -1036, -1278, -698, -534, -710, -628, -548, -601, -596, -555, -551, -551, -541, -531, -519, -507, -493, -483, -473, -456, -451, -466, -480, -480, -488, -502, -512, -517, -534, -565, -592, -599, -611, -635, -647, -650, -662, -667, -655, -647, -647, -642, -640, -640, -633, -621, -623, -633, -630, -633, -635, -628, -628, -640, -642, -633, -626, -633, -645, -642, -628])
('ECG', 1747494303670485100, [-616, -626, -633, -635, -642, -642, -626, -604, -596, -596, -599, -618, -638, -640, -633, -640, -642, -630, -647, -686, -616, -258, 239, 372, -360, -1305, -1164, -570, -609, -713, -563, -551, -626, -589, -548, -563, -565, -538, -512, -505, -507, -500, -488, -483, -488, -485, -471, -459, -476, -505, -512, -519, -543, -565, -577, -596, -618, -635, -655, -664, -664, -662, -659, -652, -640, -626, -623, -630, -630, -621, -623, -633, -626])
('ECG', 1747494304232326566, [-613, -623, -626, -618, -618, -626, -630, -623, -618, -628, -633, -623, -618, -618, -618, -623, -628, -621, -606, -592, -582, -577, -570, -582, -618, -633, -618, -609, -609, -606, -621, -662, -638, -374, 94, 362, -120, -1061, -1203, -638, -534, -686, -596, -548, -604, -584, -546, -548, -546, -526, -512, -505, -493, -476, -468, -468, -464, -451, -447, -451, -464, -480, -490, -495, -512, -534, -551, -570, -592, -609, -621, -628, -642])
('ECG', 1747494304794198552, [-647, -638, -638, -638, -599, -577, -601, -604, -592, -594, -599, -596, -596, -599, -601, -601, -596, -594, -599, -601, -599, -604, -604, -599, -599, -606, -609, -601, -599, -599, -594, -599, -609, -604, -575, -551, -555, -570, -570, -584, -613, -621, -611, -611, -606, -604, -626, -664, -596, -261, 217, 364, -314, -1225, -1121, -536, -553, -693, -577, -551, -604, -572, -538, -546, -548, -534, -519, -507, -502, -488, -471, -468, -478])
('ECG', 1747494305356040018, [-473, -464, -464, -480, -502, -514, -522, -536, -553, -558, -570, -596, -616, -630, -645, -652, -652, -652, -645, -638, -638, -626, -611, -616, -618, -613, -618, -616, -609, -616, -623, -621, -621, -618, -621, -626, -623, -613, -613, -621, -623, -621, -623, -626, -621, -616, -611, -613, -623, -621, -606, -587, -577, -577, -582, -599, -623, -630, -618, -616, -621, -611, -616, -664, -674, -461, 14, 430, 176, -841, -1353, -795, -488])
('ECG', 1747494305917912002, [-693, -652, -536, -596, -606, -551, -555, -567, -541, -522, -514, -509, -509, -500, -473, -456, -464, -468, -471, -485, -500, -502, -509, -531, -551, -555, -572, -601, -628, -645, -647, -642, -647, -652, -642, -635, -633, -626, -616, -611, -613, -621, -613, -596, -599, -609, -604, -596, -604, -609, -609, -621, -618, -592, -589, -606, -601, -594, -606, -606, -601, -601, -596, -592, -601, -606, -596, -596, -606, -594, -587, -587, -572])
('ECG', 1747494306479753468, [-551, -551, -563, -577, -587, -596, -604, -599, -589, -592, -611, -647, -613, -343, 140, 447, -9, -995, -1184, -594, -493, -700, -599, -512, -584, -577, -524, -531, -538, -512, -500, -497, -488, -471, -456, -454, -451, -442, -444, -451, -459, -471, -483, -490, -497, -514, -531, -551, -577, -596, -606, -613, -611, -611, -618, -613, -599, -596, -596, -589, -592, -594, -584, -567, -565, -577, -584, -580, -580, -584, -592, -587, -582])
('ECG', 1747494307041620364, [-582, -577, -575, -580, -584, -584, -584, -589, -589, -575, -565, -563, -565, -580, -584, -580, -580, -580, -565, -548, -548, -560, -563, -548, -531, -526, -534, -538, -553, -577, -584, -575, -567, -570, -575, -587, -621, -553, -203, 268, 367, -328, -1155, -983, -464, -543, -667, -543, -526, -577, -546, -519, -529, -524, -512, -495, -478, -468, -466, -449, -437, -447, -447, -442, -442, -444, -464, -488, -495, -500, -512, -529, -543])
('ECG', 1747494307603466918, [-558, -587, -604, -604, -611, -621, -616, -606, -599, -596, -594, -589, -587, -587, -577, -572, -584, -584, -580, -584, -582, -584, -596, -596, -584, -587, -592, -596, -594, -589, -594, -594, -592, -589, -587, -589, -594, -592, -589, -592, -587, -587, -594, -589, -580, -577, -582, -584, -584, -584, -587, -580, -560, -560, -558, -546, -565, -599, -609, -594, -592, -599, -596, -621, -674, -541, -74, 454, 483, -437, -1341, -995, -471])
('ECG', 1747494308165308386, [-635, -688, -529, -555, -606, -558, -538, -543, -524, -507, -497, -493, -493, -485, -468, -454, -451, -459, -468, -478, -493, -509, -519, -517, -526, -546, -558, -572, -587, -594, -599, -606, -618, -628, -616, -604, -604, -604, -596, -592, -592, -592, -589, -584, -589, -596, -587, -577, -584, -592, -587, -587, -594, -594, -589, -592, -592, -589, -592, -592, -589, -589, -587, -584, -582, -580, -577, -580, -582, -577, -575, -577, -572])
('ECG', 1747494308727149852, [-570, -575, -580, -570, -546, -534, -538, -541, -538, -551, -567, -584, -577, -563, -563, -570, -587, -611, -483, -67, 372, 280, -575, -1218, -816, -420, -599, -623, -485, -531, -572, -509, -493, -514, -497, -480, -471, -454, -447, -444, -427, -420, -427, -430, -420, -418, -439, -454, -461, -480, -493, -495, -514, -541, -560, -567, -575, -589, -596, -584, -577, -584, -589, -577, -565, -558, -558, -565, -560, -546, -553, -567, -567])
('ECG', 1747494309289021836, [-558, -555, -565, -570, -575, -575, -570, -570, -567, -555, -560, -577, -584, -572, -565, -575, -580, -575, -572, -575, -575, -567, -563, -565, -570, -563, -558, -570, -572, -565, -567, -572, -560, -548, -536, -519, -514, -526, -538, -555, -567, -565, -560, -560, -563, -570, -601, -599, -364, 116, 444, 62, -896, -1196, -635, -447, -638, -577, -500, -563, -553, -502, -502, -505, -483, -480, -478, -456, -444, -449, -444, -430, -420])
('ECG', 1747494309850863302, [-420, -432, -437, -437, -459, -488, -495, -500, -522, -546, -555, -565, -580, -594, -601, -609, -611, -606, -599, -589, -589, -592, -580, -577, -587, -582, -575, -575, -577, -582, -587, -582, -577, -584, -596, -599, -594, -589, -587, -584, -592, -599, -589, -584, -592, -582, -582, -589, -587, -582, -584, -577, -572, -580, -584, -580, -570, -560, -546, -538, -541, -536, -538, -565, -582, -580, -577, -570, -565, -582, -626, -582, -258])
('ECG', 1747494310412704768, [248, 451, -183, -1148, -1126, -529, -512, -657, -536, -507, -565, -526, -495, -509, -500, -476, -471, -471, -456, -439, -430, -430, -430, -422, -420, -430, -437, -444, -464, -483, -490, -500, -517, -534, -560, -587, -601, -599, -596, -601, -604, -599, -589, -584, -577, -570, -570, -567, -565, -565, -563, -565, -572, -567, -560, -567, -572, -570, -570, -572, -572, -567, -563, -570, -575, -565, -555, -560, -563, -555, -558, -563, -553])
('ECG', 1747494310974546234, [-553, -558, -548, -546, -555, -541, -529, -543, -553, -541, -526, -517, -505, -497, -500, -505, -517, -534, -558, -558, -529, -517, -531, -555, -594, -560, -256, 248, 543, 43, -971, -1123, -526, -461, -652, -531, -464, -546, -541, -490, -497, -507, -483, -464, -454, -444, -442, -435, -425, -425, -425, -435, -432, -413, -432, -493, -509, -490, -490, -507, -526, -546, -553, -548, -563, -606, -642, -645, -618, -584, -558, -551, -580])
('ECG', 1747494311536387702, [-611, -601, -570, -551, -565, -582, -570, -555, -592, -611, -555, -534, -584, -599, -560, -553, -577, -563, -538, -580, -596, -546, -529, -536, -500, -478, -500, -485, -439, -420, -401, -357, -326, -328, -297, -219, -147, -106, -72, -29, 7, 55, 132, 224, 297, 309, 335, 430, 519, 553, 553, 611, 858, 1343, 1839, 1812, 1005, 459, 937, 1322, 1193, 1268, 1411, 1363, 1365, 1430, 1462, 1513, 1527, 1498, 1508, 1544, 1537])
('ECG', 1747494312098239340, [1513, 1542, 1561, 1529, 1503, 1496, 1491, 1479, 1421, 1394, 1423, 1370, 1295, 1290, 1268, 1213, 1184, 1155, 1121, 1094, 1077, 1075, 1085, 1058, 1017, 1027, 1044, 1007, 969, 981, 983, 940, 918, 928, 908, 872, 867, 867, 838, 829, 831, 795, 758, 746, 746, 751, 732, 708, 703, 698, 696, 691, 659, 650, 671, 647, 606, 623, 633, 599, 604, 623, 599, 582, 589, 594, 594, 594, 592, 594, 565, 500, 509])
('ECG', 1747494312660085892, [555, 512, 488, 502, 454, 476, 758, 1252, 1604, 1174, 94, -190, 415, 551, 333, 418, 483, 393, 384, 418, 403, 398, 415, 413, 432, 488, 526, 570, 606, 623, 645, 647, 647, 676, 650, 616, 638, 628, 589, 577, 563, 538, 526, 509, 478, 466, 466, 437, 418, 413, 396, 408, 410, 381, 364, 345, 319, 309, 302, 280, 265, 277, 277, 253, 236, 217, 198, 190, 183, 174, 164, 142, 137])
('ECG', 1747494313221932444, [159, 157, 128, 113, 106, 94, 79, 91, 116, 96, 77, 84, 67, 58, 79, 65, 36, 58, 72, 45, 31, 41, 53, 65, 60, 33, 33, 55, 38, -2, -19, -7, -16, -41, -21, -26, -62, 125, 599, 988, 713, -248, -664, -159, 48, -140, -70, 31, -43, -58, 7, 9, 4, 31, 21, -2, 24, 62, 58, 45, 60, 72, 72, 60, 41, 33, 29, 14, -4, -16, -12, -16, -65])
('ECG', 1747494313783778996, [-108, -89, -87, -137, -174, -137, -87, -118, -147, -108, -106, -137, -140, -142, -154, -142, -111, -125, -159, -164, -174, -205, -222, -236, -273, -261, -234, -302, -372, -352, -326, -352, -389, -398, -401, -410, -435, -464, -476, -456, -456, -473, -478, -512, -529, -473, -480, -555, -551, -522, -558, -582, -548, -546, -587, -596, -577, -582, -609, -606, -589, -587, -577, -580, -599, -609, -618, -621, -618, -630, -652, -650, -642])
('ECG', 1747494314345595032, [-696, -744, -565, -99, 403, 413, -512, -1334, -959, -531, -722, -739, -609, -640, -616, -570, -618, -621, -563, -558, -572, -531, -497, -517, -519, -500, -514, -531, -500, -485, -497, -497, -524, -551, -538, -555, -594, -601, -618, -638, -609, -611, -659, -655, -623, -642, -655, -618, -609, -635, -628, -613, -628, -611, -567, -582, -606, -577, -587, -623, -601, -594, -616, -613, -594, -596, -613, -596, -580, -601, -596, -582, -592])
('ECG', 1747494314907441586, [-577, -563, -589, -592, -551, -548, -577, -572, -563, -560, -538, -529, -553, -546, -522, -543, -536, -490, -514, -551, -497, -471, -514, -505, -439, -444, -493, -471, -435, -476, -509, -488, -485, -505, -507, -531, -538, -311, 207, 671, 439, -623, -1179, -645, -369, -594, -553, -442, -490, -490, -449, -459, -461, -444, -439, -444, -449, -451, -437, -415, -408, -425, -447, -454, -466, -483, -502, -531, -553, -546, -548, -613, -664])
('ECG', 1747494315469277966, [-659, -676, -705, -713, -715, -727, -749, -744, -717, -727, -739, -737, -749, -749, -727, -727, -758, -768, -746, -744, -773, -778, -778, -792, -797, -800, -816, -845, -860, -841, -831, -867, -899, -884, -877, -916, -937, -932, -935, -952, -971, -974, -961, -964, -988, -1000, -995, -1007, -1029, -1010, -990, -1015, -1032, -1034, -1044, -1048, -1051, -1053, -1051, -1044, -1034, -1053, -1082, -1075, -1051, -1039, -1053, -1068, -1048, -1058, -1099, -1097, -1080])
('ECG', 1747494316031119432, [-1099, -1090, -1051, -1077, -1160, -1119, -821, -377, -111, -536, -1416, -1537, -1024, -988, -1169, -1075, -1015, -1065, -1056, -1022, -1027, -1024, -993, -959, -949, -937, -925, -947, -945, -896, -894, -906, -877, -870, -887, -891, -906, -908, -896, -930, -966, -964, -969, -993, -993, -966, -959, -969, -969, -966, -957, -942, -940, -928, -908, -908, -908, -894, -896, -911, -911, -884, -858, -870, -894, -891, -872, -865, -887, -894, -865, -862, -884])
('ECG', 1747494316592930380, [-877, -867, -865, -858, -879, -913, -903, -872, -862, -867, -889, -908, -877, -858, -894, -908, -891, -899, -906, -896, -908, -925, -928, -925, -906, -887, -913, -952, -940, -891, -882, -925, -937, -903, -908, -957, -969, -957, -976, -986, -988, -1046, -986, -589, -101, -9, -686, -1515, -1394, -916, -990, -1111, -1007, -998, -1044, -1010, -964, -959, -966, -964, -961, -957, -947, -937, -937, -942, -930, -908, -911, -923, -923, -930, -966])
('ECG', 1747494317154771846, [-988, -961, -959, -1000, -1032, -1051, -1075, -1077, -1056, -1036, -1041, -1068, -1068, -1046, -1056, -1065, -1032, -1012, -1034, -1024, -995, -1007, -1019, -1007, -995, -993, -1010, -1022, -998, -969, -974, -981, -993, -1000, -964, -961, -1007, -988, -949, -978, -998, -954, -930, -947, -961, -961, -957, -964, -959, -923, -901, -928, -959, -954, -925, -908, -911, -923, -916, -877, -877, -923, -940, -918, -891, -896, -945, -995, -935, -599, -62, 280, -200])
('ECG', 1747494317716613312, [-1314, -1573, -957, -819, -988, -884, -829, -891, -862, -829, -843, -821, -792, -797, -785, -749, -734, -732, -713, -708, -720, -713, -691, -693, -703, -710, -734, -751, -744, -761, -804, -821, -821, -843, -853, -848, -858, -862, -845, -836, -836, -824, -807, -809, -807, -783, -773, -783, -778, -768, -775, -783, -766, -756, -773, -766, -742, -751, -766, -761, -761, -763, -746, -756, -783, -746, -713, -729, -727, -717, -737, -758, -768])
('ECG', 1747494318278454780, [-729, -664, -667, -696, -681, -669, -679, -688, -700, -710, -710, -703, -688, -696, -737, -771, -652, -251, 273, 384, -430, -1355, -1128, -599, -722, -800, -640, -657, -720, -664, -635, -650, -623, -589, -592, -594, -570, -551, -543, -536, -522, -500, -488, -497, -512, -512, -505, -529, -572, -582, -592, -647, -679, -667, -686, -715, -696, -684, -710, -715, -700, -696, -691, -664, -652, -674, -674, -652, -662, -652, -613, -633, -657])
('ECG', 1747494318840265728, [-630, -638, -674, -642, -616, -662, -667, -621, -630, -647, -628, -640, -652, -623, -638, -647, -604, -618, -652, -616, -618, -667, -635, -592, -633, -655, -630, -638, -626, -594, -611, -611, -570, -584, -628, -650, -664, -659, -652, -635, -640, -696, -667, -372, 113, 437, 4, -1017, -1254, -679, -553, -744, -671, -570, -580, -582, -572, -572, -567, -555, -543, -524, -509, -500, -493, -490, -480, -464, -454, -461, -466, -468, -483])
('ECG', 1747494319402107194, [-500, -512, -529, -558, -584, -596, -596, -604, -606, -604, -611, -613, -606, -594, -589, -584, -580, -572, -563, -560, -558, -551, -548, -560, -558, -558, -565, -565, -555, -563, -577, -572, -560, -563, -563, -555, -560, -570, -577, -575, -560, -553, -565, -563, -555, -567, -572, -558, -558, -553, -546, -551, -551, -526, -512, -519, -512, -509, -529, -548, -551, -546, -546, -558, -567, -601, -628, -439, 45, 534, 442, -548, -1295])
('ECG', 1747494319963948660, [-853, -449, -642, -638, -502, -558, -577, -507, -509, -531, -497, -468, -466, -461, -454, -451, -444, -425, -413, -410, -410, -420, -432, -444, -461, -476, -483, -507, -541, -563, -572, -587, -606, -621, -621, -616, -613, -606, -609, -616, -606, -587, -582, -587, -584, -582, -567, -560, -567, -570, -565, -565, -575, -582, -580, -565, -563, -577, -580, -570, -575, -584, -580, -572, -567, -570, -577, -580, -567, -555, -538, -529, -536])
('ECG', 1747494320525759608, [-543, -553, -565, -577, -575, -570, -567, -567, -584, -645, -669, -398, 193, 713, 415, -816, -1409, -771, -461, -671, -592, -488, -551, -538, -488, -502, -502, -473, -471, -466, -444, -425, -413, -408, -401, -391, -391, -393, -389, -389, -410, -437, -456, -476, -502, -531, -553, -570, -584, -596, -596, -599, -613, -609, -587, -587, -594, -582, -570, -565, -553, -543, -546, -548, -553, -553, -543, -543, -553, -555, -553, -546, -534])
('ECG', 1747494321087601074, [-538, -551, -551, -553, -553, -546, -546, -543, -536, -541, -546, -536, -531, -538, -541, -526, -505, -500, -505, -500, -505, -526, -543, -543, -531, -529, -541, -560, -613, -609, -282, 326, 761, 319, -882, -1239, -589, -437, -669, -560, -473, -553, -534, -480, -490, -485, -459, -454, -444, -422, -413, -401, -386, -374, -367, -360, -357, -364, -374, -391, -408, -420, -439, -468, -502, -529, -551, -563, -567, -575, -577, -570, -567])
('ECG', 1747494321649442542, [-567, -563, -555, -553, -548, -534, -526, -534, -534, -522, -514, -517, -522, -526, -529, -529, -524, -524, -531, -534, -526, -524, -529, -524, -512, -519, -534, -524, -509, -519, -526, -517, -512, -512, -517, -524, -519, -517, -519, -507, -483, -476, -485, -485, -495, -517, -529, -529, -524, -517, -517, -543, -611, -592, -256, 333, 773, 372, -814, -1213, -577, -410, -664, -575, -468, -543, -543, -483, -483, -483, -461, -449, -444])
('ECG', 1747494322211284008, [-430, -420, -403, -377, -367, -374, -364, -357, -372, -384, -379, -391, -415, -427, -449, -493, -524, -536, -548, -567, -570, -563, -558, -563, -565, -548, -546, -558, -553, -534, -524, -531, -529, -522, -526, -531, -524, -522, -526, -526, -536, -536, -526, -534, -536, -522, -519, -534, -536, -524, -517, -522, -524, -522, -522, -526, -531, -524, -514, -517, -517, -509, -512, -519, -519, -522, -519, -514, -519, -522, -509, -497, -493])
('ECG', 1747494322773110214, [-495, -493, -495, -514, -524, -517, -519, -526, -519, -526, -582, -609, -374, 198, 773, 674, -483, -1339, -819, -367, -618, -628, -464, -519, -553, -485, -478, -495, -466, -447, -444, -425, -410, -406, -393, -379, -372, -367, -364, -372, -386, -396, -401, -420, -442, -459, -480, -509, -536, -551, -560, -570, -575, -567, -563, -555, -553, -553, -548, -538, -541, -543, -526, -517, -526, -517, -502, -509, -514, -507, -509, -519, -519])
('ECG', 1747494323334936422, [-514, -507, -509, -522, -524, -517, -509, -517, -517, -507, -509, -517, -507, -500, -505, -507, -505, -507, -509, -505, -502, -497, -495, -495, -493, -500, -505, -495, -493, -509, -512, -485, -473, -478, -476, -459, -459, -476, -493, -497, -493, -490, -490, -502, -548, -582, -381, 145, 705, 679, -357, -1220, -792, -350, -587, -621, -459, -505, -546, -483, -461, -473, -454, -432, -430, -422, -401, -384, -377, -367, -350, -348, -352])
('ECG', 1747494323896777888, [-345, -348, -369, -389, -403, -415, -425, -459, -493, -507, -519, -534, -546, -546, -546, -548, -548, -534, -519, -524, -522, -507, -509, -514, -500, -495, -502, -502, -497, -497, -495, -495, -497, -500, -505, -505, -500, -502, -509, -509, -507, -505, -502, -505, -505, -493, -490, -505, -507, -495, -493, -497, -490, -483, -483, -483, -483, -488, -493, -480, -466, -473, -478, -473, -476, -476, -473, -471, -468, -466, -468, -473, -468])
('ECG', 1747494324458619352, [-466, -478, -480, -471, -461, -464, -466, -461, -464, -464, -459, -464, -464, -456, -454, -456, -456, -456, -447, -442, -454, -447, -425, -435, -461, -471, -476, -476, -471, -476, -507, -560, -478, -55, 541, 792, 77, -1005, -964, -386, -476, -635, -490, -476, -538, -485, -454, -478, -459, -432, -439, -427, -396, -386, -381, -364, -362, -364, -355, -355, -364, -372, -381, -403, -408, -410, -437, -461, -476, -497, -517, -522, -526])
('ECG', 1747494325020430304, [-526, -522, -529, -526, -509, -500, -507, -500, -485, -488, -490, -485, -483, -485, -480, -478, -485, -488, -495, -502, -495, -488, -495, -497, -493, -495, -500, -500, -500, -502, -502, -500, -488, -483, -490, -490, -490, -500, -497, -480, -483, -500, -497, -483, -476, -485, -490, -483, -478, -488, -488, -478, -483, -485, -480, -480, -478, -473, -468, -471, -466, -461, -476, -471, -435, -439, -473, -476, -473, -488, -485, -478, -500])
('ECG', 1747494325582271770, [-555, -536, -224, 338, 758, 343, -838, -1210, -555, -379, -613, -526, -435, -502, -493, -439, -447, -444, -420, -415, -408, -389, -372, -360, -348, -343, -340, -333, -331, -338, -350, -367, -384, -393, -413, -437, -456, -471, -488, -500, -512, -519, -519, -522, -519, -514, -509, -507, -502, -495, -490, -483, -473, -478, -483, -476, -466, -466, -471, -476, -478, -480, -478, -473, -478, -478, -473, -478, -480, -476, -480, -485, -480])
('ECG', 1747494326144082718, [-478, -480, -476, -473, -478, -478, -468, -466, -476, -480, -466, -464, -476, -466, -456, -466, -471, -464, -466, -468, -461, -461, -459, -454, -459, -468, -471, -466, -466, -461, -451, -449, -439, -439, -454, -444, -427, -444, -464, -473, -480, -473, -468, -478, -522, -563, -369, 142, 662, 613, -357, -1155, -746, -316, -538, -584, -435, -471, -505, -444, -437, -451, -427, -410, -408, -384, -369, -367, -348, -340, -340, -331, -326])
('ECG', 1747494326705924184, [-333, -340, -352, -367, -372, -384, -408, -425, -447, -476, -495, -507, -514, -519, -524, -522, -512, -509, -505, -495, -493, -493, -478, -473, -483, -480, -468, -471, -478, -480, -473, -471, -480, -483, -478, -478, -478, -478, -480, -483, -480, -483, -480, -476, -480, -485, -478, -476, -476, -476, -476, -476, -483, -478, -471, -473, -478, -473, -468, -473, -473, -468, -471, -473, -471, -466, -464, -466, -471, -468, -466, -466, -466])
('ECG', 1747494327267735132, [-471, -471, -464, -459, -454, -442, -449, -464, -444, -420, -442, -461, -459, -466, -473, -459, -454, -490, -541, -420, 33, 582, 691, -120, -1065, -860, -338, -480, -589, -442, -451, -500, -444, -427, -447, -420, -393, -398, -391, -374, -364, -352, -340, -338, -335, -328, -326, -331, -345, -362, -374, -389, -406, -425, -449, -468, -483, -500, -514, -517, -514, -517, -517, -507, -507, -505, -488, -480, -485, -480, -473, -476, -480])
('ECG', 1747494327829576598, [-483, -480, -473, -476, -480, -476, -468, -471, -468, -471, -476, -471, -471, -476, -478, -476, -476, -473, -473, -473, -471, -466, -466, -466, -461, -459, -471, -480, -471, -466, -466, -464, -459, -461, -456, -459, -468, -473, -471, -468, -464, -459, -461, -459, -456, -461, -468, -468, -461, -451, -449, -449, -435, -425, -444, -456, -454, -471, -485, -476, -476, -507, -553, -451, -26, 522, 676, -89, -1080, -937, -384, -488, -601])
('ECG', 1747494328391387548, [-442, -442, -507, -451, -420, -439, -420, -391, -403, -389, -352, -355, -360, -335, -321, -323, -319, -316, -323, -345, -372, -379, -379, -401, -422, -442, -466, -485, -505, -522, -524, -522, -524, -529, -524, -514, -505, -497, -490, -485, -490, -493, -483, -480, -490, -488, -473, -480, -495, -495, -493, -493, -483, -478, -495, -507, -497, -488, -490, -495, -493, -485, -490, -500, -490, -476, -478, -483, -478, -478, -485, -485, -483])
('ECG', 1747494328953198496, [-485, -483, -480, -478, -471, -471, -480, -480, -468, -454, -442, -439, -439, -444, -464, -478, -480, -480, -478, -476, -483, -526, -565, -381, 123, 642, 558, -476, -1264, -797, -357, -553, -553, -410, -459, -488, -427, -425, -435, -403, -386, -391, -374, -352, -345, -333, -316, -316, -321, -309, -306, -321, -343, -357, -374, -396, -415, -430, -454, -483, -500, -507, -512, -517, -519, -514, -505, -502, -495, -480, -471, -476, -478])
('ECG', 1747494329515039962, [-473, -471, -473, -471, -464, -464, -471, -473, -468, -459, -461, -471, -471, -461, -461, -471, -471, -466, -466, -466, -464, -466, -466, -464, -461, -456, -456, -456, -456, -459, -464, -459, -454, -456, -451, -449, -454, -454, -454, -456, -442, -422, -427, -425, -408, -422, -456, -466, -459, -459, -461, -459, -493, -546, -393, 101, 633, 621, -297, -1131, -787, -321, -500, -563, -422, -447, -480, -422, -410, -427, -408, -391, -389])
('ECG', 1747494330076850910, [-374, -355, -348, -338, -326, -314, -306, -304, -304, -306, -316, -335, -357, -369, -389, -415, -444, -461, -473, -490, -505, -507, -507, -512, -507, -493, -485, -490, -480, -468, -466, -466, -461, -456, -459, -461, -459, -456, -459, -461, -459, -459, -464, -461, -456, -459, -459, -456, -459, -456, -459, -456, -451, -451, -459, -456, -449, -449, -454, -459, -456, -447, -447, -451, -451, -447, -449, -449, -447, -447, -451, -451, -447])
('ECG', 1747494330638687288, [-442, -442, -447, -451, -454, -451, -439, -420, -413, -420, -415, -415, -439, -459, -451, -444, -451, -454, -478, -531, -451, -48, 500, 717, 41, -981, -940, -372, -435, -587, -449, -425, -488, -447, -418, -427, -408, -386, -384, -372, -355, -345, -335, -328, -321, -311, -306, -304, -306, -319, -335, -357, -377, -389, -406, -437, -461, -471, -480, -493, -507, -509, -502, -493, -495, -488, -476, -473, -476, -466, -454, -451, -454])
('ECG', 1747494331200503324, [-451, -449, -456, -456, -447, -447, -454, -454, -447, -449, -454, -451, -449, -456, -456, -451, -447, -451, -454, -451, -447, -449, -449, -442, -442, -447, -449, -447, -437, -435, -444, -444, -432, -435, -442, -435, -432, -435, -435, -432, -437, -439, -439, -442, -442, -432, -418, -410, -408, -408, -418, -444, -451, -437, -435, -444, -447, -473, -531, -451, -50, 500, 710, 21, -986, -930, -357, -415, -572, -444, -408, -464, -439])
('ECG', 1747494331762314274, [-418, -425, -401, -381, -381, -360, -340, -340, -326, -306, -299, -302, -306, -309, -316, -323, -323, -343, -367, -386, -410, -427, -442, -468, -476, -468, -483, -500, -493, -485, -488, -478, -466, -464, -461, -454, -447, -444, -447, -444, -439, -442, -447, -447, -444, -444, -449, -454, -454, -447, -451, -454, -447, -444, -454, -451, -447, -451, -454, -444, -439, -459, -466, -451, -444, -454, -456, -447, -444, -454, -454, -447, -444])
('ECG', 1747494332324125222, [-451, -459, -454, -444, -449, -456, -461, -461, -444, -420, -422, -439, -435, -420, -432, -454, -454, -449, -461, -466, -456, -497, -543, -326, 198, 626, 401, -534, -1053, -601, -340, -565, -543, -410, -447, -459, -406, -410, -430, -408, -396, -381, -355, -364, -357, -299, -299, -333, -309, -290, -309, -311, -304, -323, -343, -357, -379, -396, -420, -442, -444, -437, -432, -413, -379, -343, -287, -217, -145, -65, 16, 103, 205])
('ECG', 1747494332885936170, [299, 396, 456, 456, 493, 580, 628, 640, 657, 693, 729, 710, 626, 551, 495, 398, 304, 263, 219, 145, 89, 62, 31, -12, -58, -82, -87, -108, -128, -128, -135, -149, -149, -161, -164, -149, -149, -169, -176, -166, -169, -188, -169, -137, -157, -174, -166, -183, -210, -219, -224, -224, -229, -227, -241, -304, -203, 275, 829, 807, -128, -942, -592, -145, -309, -348, -212, -256, -277, -205, -222, -258, -186])
('ECG', 1747494333447747118, [-145, -200, -198, -142, -152, -159, -125, -140, -166, -137, -130, -166, -181, -186, -210, -234, -258, -287, -309, -338, -348, -345, -377, -393, -377, -391, -410, -384, -357, -360, -364, -367, -381, -379, -348, -338, -360, -379, -391, -384, -362, -367, -377, -377, -389, -398, -396, -396, -401, -406, -408, -410, -413, -410, -413, -427, -430, -422, -432, -435, -425, -444, -461, -439, -435, -447, -427, -413, -430, -435, -425, -447, -478])
('ECG', 1747494334009558066, [-471, -464, -483, -493, -502, -565, -577, -261, 372, 850, 410, -874, -1310, -596, -379, -638, -538, -425, -512, -509, -449, -456, -461, -432, -415, -422, -430, -406, -389, -391, -379, -362, -352, -350, -374, -403, -415, -422, -418, -425, -490, -548, -541, -541, -572, -580, -577, -584, -589, -587, -572, -555, -555, -570, -563, -538, -536, -531, -529, -541, -538, -536, -541, -517, -517, -546, -546, -526, -519, -541, -551, -534, -512])
('ECG', 1747494334571369014, [-505, -522, -548, -541, -517, -514, -514, -517, -517, -497, -483, -505, -534, -517, -480, -473, -468, -454, -451, -459, -483, -507, -505, -485, -483, -485, -483, -565, -611, -263, 381, 841, 483, -720, -1225, -587, -352, -618, -538, -415, -495, -495, -449, -456, -432, -398, -403, -393, -374, -377, -360, -333, -338, -326, -292, -302, -333, -335, -311, -326, -381, -391, -391, -447, -490, -478, -493, -536, -543, -531, -538, -534, -517])
('ECG', 1747494335133149446, [-512, -507, -509, -509, -502, -497, -500, -502, -500, -495, -505, -512, -493, -488, -507, -512, -497, -505, -519, -519, -519, -519, -517, -509, -514, -522, -517, -505, -502, -509, -512, -507, -505, -509, -514, -512, -517, -524, -507, -471, -468, -512, -509, -483, -514, -543, -534, -529, -534, -538, -572, -647, -635, -335, 203, 596, 219, -865, -1239, -669, -505, -713, -635, -558, -618, -601, -558, -570, -563, -538, -541, -538, -517])
('ECG', 1747494335694960394, [-500, -495, -480, -464, -461, -461, -454, -456, -468, -473, -485, -514, -534, -551, -577, -601, -613, -633, -652, -659, -657, -650, -647, -642, -635, -635, -633, -626, -616, -606, -599, -601, -596, -592, -599, -601, -594, -601, -601, -587, -592, -606, -596, -584, -584, -589, -599, -601, -596, -592, -589, -589, -589, -587, -582, -577, -572, -577, -582, -580, -570, -567, -567, -553, -534, -546, -563, -551, -531, -524, -519, -512, -505])
('ECG', 1747494336256771342, [-517, -541, -548, -536, -543, -553, -548, -601, -655, -435, 111, 630, 548, -451, -1230, -812, -403, -604, -623, -488, -534, -565, -495, -473, -493, -480, -468, -476, -451, -413, -408, -406, -386, -381, -384, -372, -369, -386, -398, -401, -410, -427, -451, -490, -524, -529, -536, -555, -565, -558, -555, -555, -553, -563, -565, -551, -541, -543, -541, -522, -507, -509, -512, -512, -519, -517, -505, -505, -505, -500, -502, -517, -526])
('ECG', 1747494336818582290, [-519, -514, -517, -509, -512, -524, -519, -500, -500, -507, -505, -497, -500, -495, -490, -490, -488, -478, -464, -466, -471, -464, -451, -454, -454, -447, -447, -449, -444, -435, -437, -449, -466, -476, -461, -439, -430, -435, -437, -427, -425, -447, -468, -459, -447, -454, -466, -497, -563, -514, -108, 546, 969, 396, -901, -1160, -476, -415, -652, -517, -435, -507, -480, -439, -459, -454, -420, -406, -401, -391, -369, -355, -357])
('ECG', 1747494337380393238, [-345, -323, -323, -331, -331, -335, -355, -372, -381, -398, -420, -437, -464, -490, -502, -514, -526, -526, -524, -526, -522, -519, -522, -522, -514, -505, -485, -478, -483, -483, -483, -483, -476, -476, -478, -471, -464, -473, -483, -483, -485, -490, -478, -468, -476, -480, -480, -473, -473, -480, -476, -464, -466, -471, -466, -461, -464, -466, -461, -456, -459, -459, -454, -454, -459, -451, -447, -456, -461, -454, -456, -459, -459])
('ECG', 1747494337942204184, [-456, -447, -439, -437, -430, -418, -413, -430, -451, -459, -454, -447, -442, -456, -507, -553, -360, 183, 758, 749, -287, -1196, -790, -306, -526, -575, -422, -459, -485, -418, -418, -437, -403, -389, -391, -372, -345, -338, -333, -328, -314, -297, -297, -306, -309, -323, -340, -345, -360, -393, -427, -449, -461, -480, -500, -509, -512, -512, -507, -505, -509, -512, -493, -476, -478, -488, -478, -464, -466, -464, -456, -449, -442])
('ECG', 1747494338503984618, [-439, -439, -442, -444, -451, -454, -451, -444, -442, -444, -449, -447, -442, -439, -439, -444, -447, -447, -442, -442, -444, -437, -432, -439, -444, -439, -432, -435, -439, -439, -432, -432, -435, -432, -435, -437, -427, -425, -437, -439, -430, -425, -425, -427, -430, -430, -427, -430, -425, -420, -422, -430, -432, -425, -425, -427, -420, -418, -420, -418, -408, -401, -418, -415, -379, -384, -422, -430, -422, -430, -430, -427, -442])
('ECG', 1747494339065795566, [-502, -509, -217, 362, 819, 522, -575, -1090, -548, -331, -580, -517, -398, -468, -468, -408, -415, -422, -391, -381, -381, -360, -340, -331, -321, -309, -299, -292, -290, -297, -304, -311, -321, -328, -343, -367, -384, -406, -427, -442, -461, -476, -476, -478, -478, -471, -466, -461, -456, -456, -451, -449, -449, -439, -435, -442, -435, -420, -422, -432, -435, -437, -437, -430, -435, -439, -435, -435, -435, -437, -444, -451, -447])
('ECG', 1747494339627606514, [-442, -439, -439, -442, -442, -439, -444, -447, -435, -430, -439, -447, -437, -430, -435, -432, -425, -435, -444, -432, -422, -430, -435, -432, -432, -432, -432, -432, -430, -427, -427, -422, -425, -432, -427, -410, -413, -422, -410, -393, -401, -427, -442, -442, -442, -442, -444, -461, -522, -473, -106, 456, 804, 319, -821, -1082, -459, -362, -567, -447, -381, -464, -435, -384, -401, -398, -377, -362, -348, -335, -328, -316, -309])
('ECG', 1747494340189386944, [-304, -292, -285, -287, -294, -299, -316, -328, -340, -357, -379, -403, -425, -437, -454, -473, -483, -490, -490, -485, -485, -480, -468, -466, -466, -456, -449, -449, -451, -447, -439, -439, -447, -442, -442, -451, -451, -447, -444, -447, -451, -451, -447, -444, -447, -442, -437, -447, -444, -437, -439, -442, -437, -442, -447, -444, -435, -430, -435, -442, -437, -430, -432, -437, -430, -422, -425, -430, -432, -430, -427, -427, -427])
('ECG', 1747494340751197892, [-425, -427, -430, -422, -408, -396, -401, -410, -396, -381, -396, -408, -418, -430, -430, -422, -427, -449, -502, -447, -45, 558, 877, 241, -928, -1024, -377, -374, -572, -439, -393, -459, -425, -386, -396, -391, -372, -364, -355, -323, -302, -299, -294, -285, -277, -273, -268, -265, -270, -290, -314, -340, -355, -369, -398, -432, -449, -459, -473, -485, -488, -483, -476, -473, -468, -468, -476, -471, -442, -430, -444, -447, -432])
('ECG', 1747494341313008840, [-425, -432, -435, -427, -420, -422, -432, -427, -418, -427, -430, -422, -427, -444, -451, -447, -442, -449, -454, -442, -437, -444, -447, -442, -444, -454, -456, -442, -425, -439, -449, -430, -425, -444, -437, -422, -439, -451, -439, -435, -437, -430, -430, -439, -439, -418, -403, -413, -410, -413, -430, -439, -442, -444, -439, -442, -485, -541, -418, 38, 626, 850, 72, -1065, -988, -364, -437, -580, -427, -415, -471, -420, -393])
('ECG', 1747494341874789272, [-408, -393, -377, -369, -348, -326, -323, -316, -297, -287, -285, -280, -275, -282, -302, -321, -333, -340, -352, -386, -418, -432, -449, -468, -478, -488, -493, -488, -478, -478, -478, -478, -473, -456, -451, -451, -449, -447, -437, -425, -427, -432, -425, -427, -439, -444, -439, -439, -442, -435, -432, -432, -432, -437, -437, -435, -432, -432, -435, -435, -432, -437, -439, -425, -415, -422, -422, -420, -420, -415, -420, -435, -432])
('ECG', 1747494342436600220, [-430, -427, -410, -391, -389, -393, -389, -393, -406, -406, -425, -444, -427, -408, -430, -493, -483, -154, 449, 877, 444, -734, -1102, -471, -319, -567, -476, -374, -447, -437, -384, -403, -401, -360, -348, -348, -328, -314, -309, -292, -273, -265, -263, -258, -253, -258, -273, -292, -311, -333, -360, -391, -422, -439, -456, -466, -468, -476, -480, -473, -471, -471, -468, -459, -447, -442, -444, -442, -435, -432, -427, -427, -427])
('ECG', 1747494342998411168, [-422, -418, -420, -422, -427, -430, -422, -413, -415, -427, -425, -415, -415, -420, -415, -413, -418, -420, -418, -413, -413, -413, -413, -410, -413, -415, -415, -410, -410, -415, -413, -401, -391, -401, -408, -406, -406, -408, -401, -398, -408, -415, -410, -398, -384, -377, -377, -379, -381, -398, -418, -413, -406, -410, -413, -425, -483, -459, -111, 473, 831, 338, -773, -1024, -425, -338, -555, -454, -374, -442, -425, -377, -381])
('ECG', 1747494343560222116, [-379, -360, -350, -340, -321, -309, -304, -297, -277, -258, -253, -258, -258, -268, -292, -304, -306, -323, -350, -377, -403, -427, -439, -437, -447, -468, -468, -459, -464, -464, -444, -432, -432, -427, -425, -427, -420, -413, -418, -422, -420, -420, -418, -418, -422, -418, -413, -422, -430, -425, -420, -420, -418, -427, -439, -422, -410, -420, -425, -418, -420, -425, -415, -408, -418, -413, -401, -406, -415, -410, -403, -406, -406])
('ECG', 1747494344122033064, [-401, -401, -408, -406, -403, -401, -403, -408, -418, -401, -377, -372, -374, -372, -367, -384, -408, -415, -408, -406, -410, -415, -447, -497, -379, 70, 640, 795, -50, -1102, -911, -321, -430, -536, -386, -386, -437, -389, -362, -372, -357, -345, -340, -326, -311, -297, -280, -270, -265, -261, -256, -253, -263, -280, -292, -304, -323, -348, -364, -381, -406, -425, -439, -444, -449, -454, -454, -451, -444, -439, -437, -430, -420])
('ECG', 1747494344683905048, [-415, -410, -408, -408, -403, -396, -393, -396, -401, -401, -401, -398, -401, -403, -403, -406, -408, -408, -406, -406, -408, -410, -408, -403, -403, -406, -408, -403, -398, -398, -398, -398, -401, -401, -401, -406, -406, -393, -389, -393, -393, -391, -389, -391, -393, -391, -391, -393, -398, -396, -386, -389, -396, -386, -374, -364, -364, -364, -362, -379, -403, -401, -389, -389, -391, -401, -454, -478, -229, 326, 804, 589, -468])
('ECG', 1747494345245624444, [-1075, -567, -265, -502, -480, -360, -418, -427, -364, -369, -377, -348, -335, -335, -321, -304, -292, -285, -273, -263, -251, -241, -246, -256, -268, -282, -294, -311, -333, -355, -377, -401, -425, -435, -442, -447, -442, -442, -439, -437, -435, -430, -425, -420, -410, -410, -408, -398, -396, -396, -393, -396, -398, -398, -401, -403, -403, -403, -403, -398, -393, -401, -406, -403, -403, -403, -406, -406, -408, -403, -396, -398, -406])
('ECG', 1747494345807435392, [-406, -398, -393, -401, -406, -401, -401, -408, -403, -396, -396, -396, -389, -389, -398, -398, -391, -391, -398, -398, -389, -389, -391, -389, -386, -398, -401, -381, -369, -372, -374, -367, -369, -393, -408, -398, -386, -396, -410, -427, -473, -413, -24, 560, 848, 193, -928, -976, -357, -374, -548, -401, -360, -442, -403, -355, -374, -367, -335, -326, -321, -306, -292, -280, -270, -261, -256, -251, -244, -248, -270, -285, -297])
('ECG', 1747494346369215822, [-314, -331, -348, -374, -398, -418, -435, -444, -451, -456, -456, -456, -456, -449, -432, -430, -432, -418, -410, -415, -415, -408, -406, -403, -398, -401, -410, -415, -408, -398, -406, -413, -410, -408, -406, -403, -408, -408, -406, -408, -410, -408, -398, -396, -398, -398, -398, -401, -398, -389, -391, -396, -393, -391, -393, -389, -384, -386, -393, -391, -386, -386, -389, -389, -389, -391, -386, -362, -348, -357, -360, -350, -367])
('ECG', 1747494346931026770, [-391, -391, -381, -384, -393, -408, -456, -461, -186, 379, 836, 536, -570, -1092, -524, -270, -509, -461, -345, -406, -410, -352, -350, -355, -333, -316, -309, -292, -277, -265, -256, -244, -234, -222, -215, -224, -234, -244, -261, -277, -294, -319, -350, -379, -396, -413, -425, -432, -437, -437, -439, -437, -430, -425, -420, -415, -413, -410, -406, -396, -393, -396, -396, -398, -396, -386, -386, -391, -391, -386, -391, -396, -396])
('ECG', 1747494347492807200, [-396, -403, -403, -396, -396, -398, -396, -391, -389, -389, -396, -393, -389, -389, -386, -377, -377, -381, -379, -379, -381, -379, -379, -381, -379, -377, -374, -372, -374, -377, -374, -372, -374, -377, -377, -384, -389, -379, -369, -360, -348, -350, -352, -357, -374, -391, -386, -379, -381, -391, -415, -466, -396, 2, 572, 824, 169, -889, -906, -321, -357, -526, -393, -362, -430, -391, -350, -364, -355, -328, -323, -319, -299])
('ECG', 1747494348054618148, [-282, -273, -265, -258, -241, -229, -234, -234, -239, -258, -277, -290, -306, -335, -362, -377, -393, -413, -430, -444, -449, -447, -447, -447, -435, -420, -420, -425, -418, -410, -408, -403, -403, -406, -401, -396, -401, -406, -403, -403, -406, -403, -403, -410, -413, -408, -408, -406, -403, -415, -418, -408, -403, -401, -401, -398, -398, -403, -406, -398, -398, -406, -403, -396, -396, -398, -396, -393, -393, -393, -398, -401, -393])
('ECG', 1747494348616398580, [-384, -386, -389, -391, -393, -393, -384, -381, -391, -389, -369, -355, -355, -355, -357, -374, -396, -396, -391, -391, -396, -396, -420, -478, -384, 53, 628, 819, 41, -1034, -925, -331, -408, -524, -372, -369, -425, -372, -338, -352, -340, -316, -314, -309, -290, -270, -258, -253, -251, -241, -232, -229, -241, -258, -273, -290, -306, -321, -340, -369, -393, -406, -420, -435, -437, -435, -439, -437, -427, -422, -415, -408, -403])
('ECG', 1747494349178209528, [-398, -396, -391, -386, -381, -386, -393, -393, -389, -389, -389, -384, -386, -391, -386, -386, -391, -391, -393, -393, -391, -393, -393, -393, -396, -391, -384, -386, -391, -386, -379, -384, -384, -379, -379, -384, -384, -384, -384, -377, -372, -379, -381, -377, -374, -379, -377, -377, -381, -384, -384, -386, -379, -352, -340, -355, -352, -340, -355, -384, -391, -377, -374, -381, -396, -444, -437, -128, 447, 843, 430, -671, -1027])
('ECG', 1747494349739989958, [-442, -290, -512, -432, -340, -408, -403, -350, -352, -348, -323, -316, -309, -287, -273, -265, -253, -241, -234, -222, -217, -222, -234, -248, -263, -275, -292, -314, -343, -372, -393, -408, -422, -432, -437, -432, -427, -427, -425, -418, -413, -410, -406, -398, -396, -396, -391, -386, -389, -391, -384, -374, -374, -379, -379, -377, -381, -391, -389, -379, -381, -389, -386, -381, -384, -384, -381, -377, -374, -377, -389, -389, -379])
('ECG', 1747494350301800906, [-379, -377, -374, -374, -372, -369, -367, -372, -369, -362, -364, -369, -362, -355, -357, -360, -352, -348, -357, -367, -362, -355, -362, -364, -360, -357, -367, -374, -372, -360, -340, -333, -338, -340, -352, -374, -381, -377, -384, -381, -374, -408, -449, -311, 132, 647, 742, -33, -930, -761, -285, -391, -478, -357, -362, -389, -338, -335, -362, -343, -314, -311, -297, -277, -268, -261, -265, -256, -236, -236, -248, -251, -256])
('ECG', 1747494350863581336, [-261, -244, -244, -299, -360, -374, -369, -374, -379, -396, -415, -418, -420, -432, -415, -389, -398, -410, -391, -377, -384, -381, -381, -393, -386, -369, -379, -389, -377, -369, -345, -323, -381, -430, -398, -393, -408, -384, -372, -374, -364, -372, -391, -393, -386, -381, -372, -369, -381, -379, -381, -393, -379, -367, -384, -372, -345, -364, -398, -389, -355, -357, -406, -396, -348, -362, -377, -362, -377, -355, -302, -316, -367])
('ECG', 1747494351425392284, [-367, -355, -377, -391, -384, -386, -396, -398, -437, -466, -174, 480, 974, 572, -657, -1157, -514, -275, -507, -401, -277, -340, -369, -343, -299, -265, -234, -205, -198, -164, -128, -99, -45, -29, -24, 29, 48, 33, 65, 87, 65, 38, 29, 16, -33, -65, -31, -36, -72, -58, -41, -74, -108, -120, -142, -166, -166, -166, -183, -195, -205, -227, -241, -227, -219, -227, -227, -232, -229, -236, -258, -246, -239])
('ECG', 1747494351987172716, [-251, -239, -232, -244, -246, -248, -244, -229, -236, -246, -236, -244, -251, -236, -234, -239, -224, -222, -232, -244, -263, -244, -212, -215, -217, -207, -205, -212, -239, -268, -273, -273, -275, -275, -319, -386, -246, 270, 867, 932, -58, -1087, -758, -198, -369, -413, -234, -285, -338, -258, -253, -285, -248, -236, -256, -234, -210, -210, -190, -193, -210, -181, -159, -183, -205, -210, -219, -227, -248, -306, -335, -333, -377])
('ECG', 1747494352548953146, [-420, -410, -413, -437, -442, -435, -435, -437, -430, -415, -403, -403, -410, -415, -410, -403, -408, -413, -413, -420, -425, -420, -422, -430, -432, -432, -435, -437, -435, -432, -435, -442, -439, -435, -432, -435, -437, -439, -437, -432, -430, -432, -437, -439, -422, -398, -393, -401, -396, -398, -422, -437, -437, -432, -430, -439, -461, -514, -490, -135, 464, 809, 253, -896, -1082, -427, -352, -560, -442, -374, -444, -415, -367])
('ECG', 1747494353110764094, [-386, -386, -357, -333, -314, -302, -299, -290, -265, -253, -248, -236, -236, -244, -248, -263, -282, -304, -328, -355, -386, -415, -437, -459, -471, -461, -461, -473, -473, -459, -451, -447, -442, -437, -430, -420, -418, -415, -406, -403, -408, -406, -396, -393, -401, -408, -408, -410, -410, -408, -403, -403, -408, -403, -401, -406, -406, -393, -393, -410, -415, -401, -391, -398, -398, -389, -396, -408, -403, -384, -362, -360, -360])
('ECG', 1747494353672544524, [-345, -352, -384, -398, -396, -391, -389, -391, -415, -476, -449, -87, 512, 870, 340, -802, -1039, -410, -311, -526, -432, -357, -418, -398, -345, -350, -352, -333, -321, -316, -304, -287, -270, -258, -256, -246, -217, -207, -232, -248, -246, -265, -294, -306, -326, -367, -398, -408, -420, -442, -456, -456, -461, -466, -454, -442, -439, -430, -418, -420, -415, -408, -403, -406, -403, -398, -401, -401, -391, -391, -401, -408, -403])
('ECG', 1747494354234324954, [-401, -408, -410, -406, -398, -398, -406, -413, -406, -389, -393, -403, -391, -381, -391, -393, -377, -367, -381, -389, -374, -369, -386, -389, -374, -364, -360, -355, -350, -338, -343, -362, -377, -389, -393, -384, -377, -393, -444, -485, -299, 232, 804, 804, -241, -1196, -792, -273, -461, -497, -343, -374, -406, -348, -338, -340, -316, -304, -304, -292, -277, -268, -256, -244, -232, -219, -219, -227, -234, -248, -270, -280, -290])
('ECG', 1747494354796135902, [-314, -348, -374, -391, -403, -422, -432, -435, -442, -442, -432, -425, -420, -420, -413, -403, -398, -396, -391, -391, -396, -396, -386, -381, -386, -386, -384, -384, -391, -393, -393, -393, -396, -396, -393, -386, -384, -384, -386, -391, -389, -386, -391, -391, -384, -377, -379, -377, -372, -364, -367, -372, -369, -357, -360, -367, -364, -357, -357, -362, -364, -362, -367, -369, -355, -333, -326, -326, -328, -335, -355, -369, -364])
('ECG', 1747494355357916334, [-357, -360, -367, -381, -439, -432, -101, 507, 947, 541, -630, -1036, -432, -270, -514, -430, -328, -403, -396, -338, -348, -348, -316, -302, -302, -290, -268, -261, -253, -236, -227, -227, -222, -217, -227, -248, -263, -275, -287, -306, -333, -362, -384, -401, -408, -420, -430, -427, -425, -425, -420, -410, -406, -401, -396, -393, -396, -389, -381, -384, -384, -381, -381, -381, -379, -377, -374, -384, -391, -386, -381, -384, -381])
('ECG', 1747494355919696764, [-381, -386, -386, -379, -377, -377, -379, -374, -367, -374, -379, -369, -357, -357, -362, -362, -364, -360, -357, -357, -355, -355, -357, -357, -355, -357, -352, -352, -357, -357, -355, -355, -348, -345, -350, -350, -348, -350, -348, -348, -352, -352, -350, -352, -350, -348, -352, -352, -345, -343, -345, -343, -350, -357, -350, -333, -319, -314, -316, -323, -343, -360, -362, -357, -357, -357, -377, -437, -422, -99, 488, 925, 565])
('ECG', 1747494356481477194, [-570, -1007, -435, -268, -519, -444, -345, -415, -398, -333, -343, -350, -323, -309, -302, -292, -277, -265, -261, -246, -232, -224, -227, -232, -234, -239, -253, -273, -287, -299, -316, -338, -357, -374, -384, -391, -396, -401, -401, -393, -389, -391, -391, -379, -372, -374, -367, -360, -362, -364, -364, -367, -369, -367, -367, -367, -360, -362, -369, -372, -372, -381, -381, -374, -369, -377, -384, -379, -369, -372, -377, -372, -372])
('ECG', 1747494357043257624, [-372, -372, -374, -374, -367, -364, -364, -369, -377, -377, -362, -350, -352, -360, -362, -357, -360, -364, -360, -355, -357, -357, -355, -360, -364, -355, -352, -357, -362, -357, -352, -340, -328, -331, -335, -328, -321, -338, -360, -367, -364, -357, -357, -369, -408, -456, -316, 161, 727, 853, -2, -1027, -812, -251, -396, -497, -333, -345, -406, -350, -323, -340, -316, -292, -292, -282, -258, -248, -246, -234, -224, -222, -219])
('ECG', 1747494357605068572, [-219, -224, -234, -251, -273, -294, -311, -323, -340, -367, -377, -374, -391, -413, -415, -415, -420, -418, -410, -403, -396, -391, -381, -374, -372, -377, -372, -369, -379, -379, -367, -369, -381, -381, -377, -372, -374, -379, -381, -377, -379, -386, -381, -374, -379, -381, -379, -379, -377, -372, -374, -377, -369, -369, -372, -369, -367, -367, -364, -367, -364, -362, -362, -367, -364, -355, -355, -360, -364, -362, -360, -357, -360])
('ECG', 1747494358166849002, [-360, -355, -357, -355, -340, -333, -345, -350, -328, -314, -316, -309, -302, -319, -340, -348, -348, -345, -345, -352, -393, -447, -280, 236, 802, 836, -111, -1039, -708, -215, -420, -488, -326, -360, -403, -335, -319, -338, -316, -294, -292, -285, -273, -261, -244, -229, -219, -212, -207, -215, -222, -229, -241, -258, -277, -297, -319, -340, -364, -384, -401, -410, -418, -418, -415, -413, -413, -406, -398, -393, -384, -379, -377])
('ECG', 1747494358728629434, [-379, -381, -374, -362, -364, -367, -360, -360, -367, -367, -362, -367, -372, -372, -369, -372, -374, -372, -369, -372, -377, -369, -362, -369, -374, -367, -362, -367, -367, -364, -360, -360, -364, -364, -360, -362, -360, -355, -357, -360, -355, -352, -352, -350, -352, -350, -348, -352, -350, -340, -343, -348, -345, -343, -350, -348, -331, -314, -311, -314, -311, -321, -340, -343, -343, -343, -350, -357, -377, -427, -355, 53, 640])
('ECG', 1747494359290409864, [889, 207, -865, -870, -282, -328, -497, -360, -333, -403, -360, -319, -335, -328, -304, -294, -287, -275, -253, -241, -241, -224, -203, -203, -212, -217, -227, -236, -246, -268, -285, -309, -338, -360, -369, -386, -406, -418, -418, -415, -415, -415, -413, -406, -398, -391, -384, -379, -384, -386, -377, -372, -379, -379, -379, -377, -364, -362, -372, -364, -362, -377, -379, -374, -377, -374, -372, -377, -377, -367, -367, -377, -381])
('ECG', 1747494359852190294, [-381, -377, -372, -369, -369, -374, -377, -369, -357, -357, -369, -381, -374, -360, -360, -369, -369, -362, -357, -350, -348, -362, -367, -357, -362, -374, -364, -350, -345, -338, -333, -328, -323, -333, -355, -374, -372, -362, -364, -372, -398, -449, -314, 171, 729, 804, -74, -1044, -792, -244, -384, -480, -333, -338, -379, -333, -321, -331, -311, -294, -294, -282, -261, -244, -234, -224, -217, -212, -207, -207, -212, -227, -246])
('ECG', 1747494360413970724, [-261, -273, -292, -311, -338, -367, -389, -401, -413, -418, -418, -425, -425, -413, -413, -410, -393, -381, -389, -393, -384, -372, -381, -384, -367, -362, -377, -381, -377, -379, -384, -381, -381, -384, -386, -389, -384, -381, -381, -384, -384, -377, -372, -377, -377, -372, -374, -374, -374, -374, -369, -374, -377, -369, -360, -362, -367, -364, -362, -362, -362, -364, -364, -367, -367, -357, -335, -323, -333, -331, -333, -360, -379])
('ECG', 1747494360975751154, [-372, -360, -357, -362, -389, -444, -415, -89, 493, 896, 425, -761, -1075, -413, -268, -490, -386, -299, -369, -352, -309, -321, -311, -282, -277, -273, -256, -241, -234, -222, -212, -203, -193, -186, -190, -200, -210, -232, -258, -277, -297, -326, -348, -372, -391, -401, -406, -413, -413, -408, -408, -406, -401, -391, -384, -381, -377, -374, -377, -369, -364, -367, -372, -369, -362, -360, -362, -372, -374, -367, -372, -374, -367])
('ECG', 1747494361537562102, [-369, -374, -374, -372, -367, -364, -367, -367, -362, -360, -362, -362, -360, -360, -364, -362, -355, -357, -360, -352, -352, -355, -355, -355, -355, -355, -352, -343, -345, -345, -340, -345, -355, -357, -348, -333, -323, -319, -319, -321, -333, -350, -355, -355, -357, -352, -355, -389, -439, -299, 193, 754, 800, -101, -1010, -715, -224, -398, -473, -326, -348, -389, -335, -326, -333, -304, -285, -282, -268, -251, -241, -229, -219])
('ECG', 1747494362099312016, [-210, -198, -195, -193, -190, -198, -217, -236, -251, -270, -294, -321, -348, -369, -384, -391, -393, -393, -398, -398, -389, -379, -381, -377, -367, -364, -367, -360, -352, -352, -357, -352, -345, -350, -355, -352, -352, -357, -355, -355, -357, -357, -360, -362, -360, -357, -352, -350, -350, -355, -357, -355, -350, -355, -352, -345, -350, -355, -343, -338, -355, -362, -352, -345, -352, -357, -345, -335, -340, -345, -348, -352, -352])
('ECG', 1747494362661092446, [-348, -343, -338, -348, -362, -355, -340, -338, -335, -311, -302, -316, -323, -326, -345, -352, -338, -338, -350, -364, -413, -406, -118, 444, 887, 536, -601, -1048, -451, -244, -483, -413, -306, -372, -369, -319, -326, -328, -302, -287, -277, -261, -248, -241, -224, -210, -205, -200, -193, -195, -212, -224, -236, -253, -268, -290, -311, -335, -362, -381, -396, -406, -408, -410, -408, -406, -410, -406, -396, -389, -381, -374, -369])
('ECG', 1747494363222872876, [-372, -372, -362, -362, -369, -360, -355, -367, -369, -360, -355, -362, -372, -372, -367, -367, -374, -374, -369, -364, -364, -369, -367, -360, -362, -367, -364, -362, -357, -355, -357, -357, -357, -360, -357, -357, -355, -350, -345, -352, -355, -355, -350, -338, -323, -326, -321, -314, -333, -357, -360, -360, -360, -357, -362, -403, -451, -302, 195, 761, 797, -171, -1109, -758, -234, -401, -454, -309, -343, -384, -321, -299, -316])
('ECG', 1747494363784653306, [-297, -275, -275, -265, -241, -224, -215, -200, -190, -188, -186, -183, -186, -193, -212, -232, -244, -265, -299, -323, -345, -372, -389, -393, -403, -401, -396, -398, -391, -384, -384, -374, -364, -364, -364, -362, -355, -348, -348, -350, -350, -352, -352, -350, -350, -355, -355, -352, -352, -357, -355, -348, -352, -357, -355, -350, -352, -352, -350, -352, -355, -348, -340, -338, -343, -348, -340, -333, -340, -345, -338, -338, -343])
('ECG', 1747494364346433736, [-340, -335, -335, -340, -345, -340, -335, -340, -338, -333, -328, -314, -299, -302, -304, -302, -321, -340, -348, -350, -343, -338, -355, -403, -418, -181, 362, 853, 664, -391, -1044, -546, -212, -451, -444, -309, -360, -384, -328, -323, -328, -297, -280, -280, -268, -251, -241, -227, -205, -198, -195, -188, -183, -188, -203, -219, -229, -244, -273, -292, -311, -345, -369, -384, -396, -398, -398, -403, -398, -391, -386, -381, -377])
('ECG', 1747494364908214166, [-372, -364, -357, -362, -364, -352, -340, -348, -355, -350, -345, -348, -348, -350, -352, -355, -350, -348, -352, -357, -357, -360, -352, -348, -352, -355, -352, -350, -350, -350, -350, -352, -350, -345, -345, -345, -340, -340, -345, -348, -340, -335, -340, -340, -338, -338, -343, -343, -338, -331, -340, -355, -340, -319, -311, -306, -304, -309, -326, -343, -355, -352, -340, -340, -360, -398, -427, -241, 265, 787, 744, -227, -1044])
('ECG', 1747494365469994598, [-647, -210, -422, -461, -314, -357, -386, -319, -309, -331, -304, -275, -273, -270, -256, -234, -224, -224, -207, -188, -181, -181, -193, -205, -210, -222, -246, -268, -292, -316, -343, -364, -381, -393, -398, -403, -406, -401, -396, -393, -381, -369, -362, -360, -360, -357, -352, -357, -357, -352, -357, -360, -343, -340, -357, -362, -348, -348, -362, -367, -364, -364, -357, -343, -348, -355, -355, -360, -360, -352, -350, -355, -357])
('ECG', 1747494366031775028, [-352, -345, -345, -355, -355, -350, -350, -350, -345, -345, -350, -343, -335, -328, -311, -302, -311, -319, -331, -350, -352, -345, -348, -355, -357, -377, -437, -357, 108, 734, 928, 55, -1094, -920, -263, -364, -480, -306, -311, -374, -316, -287, -306, -292, -277, -277, -253, -224, -224, -232, -212, -188, -186, -188, -178, -183, -195, -205, -232, -261, -273, -299, -340, -357, -362, -384, -401, -398, -401, -403, -393, -384, -396])
('ECG', 1747494366593524940, [-403, -386, -367, -362, -355, -355, -357, -352, -345, -343, -348, -348, -340, -340, -352, -355, -345, -352, -362, -350, -340, -355, -364, -367, -364, -348, -338, -348, -350, -348, -355, -362, -352, -343, -345, -348, -360, -352, -331, -343, -362, -357, -350, -348, -348, -333, -319, -331, -331, -319, -338, -362, -364, -360, -357, -360, -369, -401, -449, -321, 137, 664, 742, -79, -993, -761, -256, -396, -490, -355, -367, -410, -360])
('ECG', 1747494367155305370, [-343, -364, -345, -314, -302, -304, -294, -270, -265, -268, -248, -234, -234, -224, -224, -246, -263, -268, -282, -302, -340, -379, -389, -403, -425, -430, -430, -435, -430, -425, -422, -413, -408, -415, -422, -410, -391, -389, -386, -386, -391, -391, -381, -374, -377, -379, -374, -374, -381, -381, -379, -384, -379, -374, -374, -362, -357, -377, -386, -377, -374, -372, -352, -345, -360, -367, -357, -360, -377, -367, -348, -360, -369])
('ECG', 1747494367717085800, [-355, -357, -377, -360, -328, -335, -333, -316, -331, -360, -369, -360, -355, -360, -364, -393, -422, -227, 270, 729, 575, -360, -949, -507, -212, -427, -427, -316, -360, -364, -311, -309, -314, -306, -309, -297, -270, -263, -261, -244, -224, -219, -217, -217, -215, -224, -246, -248, -244, -265, -294, -321, -348, -372, -391, -401, -408, -410, -413, -413, -410, -406, -403, -398, -391, -384, -372, -364, -362, -357, -362, -377, -377])
('ECG', 1747494368278866232, [-362, -362, -377, -374, -355, -357, -374, -379, -367, -364, -377, -372, -362, -369, -372, -374, -381, -374, -364, -372, -381, -384, -369, -352, -357, -367, -369, -372, -364, -355, -360, -350, -331, -331, -335, -326, -321, -338, -362, -372, -364, -355, -367, -374, -403, -447, -285, 193, 671, 584, -343, -1048, -647, -261, -442, -444, -316, -374, -403, -333, -326, -352, -335, -316, -314, -299, -287, -277, -256, -244, -239, -227, -224])
('ECG', 1747494368840616144, [-232, -239, -248, -253, -261, -282, -314, -340, -362, -377, -396, -415, -422, -420, -427, -442, -435, -425, -425, -420, -415, -418, -401, -386, -396, -408, -403, -396, -401, -401, -391, -384, -396, -401, -389, -381, -393, -398, -393, -396, -406, -403, -391, -396, -401, -381, -372, -379, -386, -386, -389, -384, -384, -389, -391, -381, -360, -343, -348, -352, -352, -357, -369, -386, -389, -372, -364, -381, -430, -468, -275, 248, 758])
('ECG', 1747494369402396574, [633, -403, -1131, -652, -253, -459, -447, -314, -369, -396, -352, -357, -360, -328, -311, -306, -285, -273, -270, -258, -246, -239, -227, -224, -234, -236, -239, -258, -285, -299, -321, -355, -369, -384, -420, -439, -435, -447, -456, -447, -442, -439, -435, -425, -410, -406, -410, -406, -401, -406, -398, -389, -393, -393, -374, -381, -410, -401, -384, -398, -398, -391, -398, -386, -372, -398, -425, -408, -389, -393, -398, -391, -386])
('ECG', 1747494369964146486, [-391, -396, -389, -374, -352, -345, -352, -350, -348, -364, -381, -396, -398, -377, -369, -406, -459, -447, -147, 449, 920, 553, -652, -1138, -505, -277, -514, -427, -321, -401, -403, -348, -348, -352, -331, -314, -311, -304, -282, -268, -256, -236, -234, -246, -241, -234, -241, -241, -248, -270, -290, -328, -374, -389, -396, -425, -451, -449, -437, -432, -444, -461, -449, -427, -432, -439, -432, -415, -403, -403, -403, -398, -403])
('ECG', 1747494370525926916, [-406, -398, -398, -403, -393, -391, -401, -396, -393, -398, -393, -393, -384, -379, -401, -406, -391, -393, -396, -377, -364, -374, -393, -396, -384, -381, -377, -360, -328, -316, -335, -355, -357, -364, -379, -377, -369, -369, -386, -432, -432, -152, 435, 937, 650, -536, -1121, -519, -236, -490, -442, -319, -381, -386, -328, -335, -348, -319, -302, -292, -270, -265, -273, -253, -229, -229, -229, -212, -212, -229, -241, -261, -275])
('ECG', 1747494371087707346, [-277, -302, -348, -377, -391, -408, -413, -418, -430, -437, -430, -420, -418, -413, -408, -406, -398, -396, -393, -389, -386, -384, -384, -389, -384, -372, -381, -393, -386, -384, -389, -384, -374, -377, -389, -379, -369, -381, -384, -377, -374, -381, -381, -369, -367, -381, -389, -384, -379, -367, -357, -369, -369, -355, -340, -321, -326, -360, -352, -328, -348, -357, -348, -362, -362, -367, -439, -427, -74, 529, 952, 517, -662])
('ECG', 1747494371649457258, [-1017, -406, -292, -514, -393, -306, -381, -360, -309, -321, -309, -280, -282, -285, -268, -256, -258, -236, -198, -200, -210, -190, -188, -207, -212, -224, -246, -256, -290, -333, -350, -367, -386, -389, -389, -386, -396, -420, -413, -381, -391, -410, -381, -367, -384, -357, -333, -362, -381, -369, -364, -362, -350, -364, -377, -350, -352, -379, -357, -343, -360, -357, -348, -348, -343, -323, -338, -372, -367, -343, -340, -335, -345])
('ECG', 1747494372211237690, [-362, -345, -335, -360, -355, -319, -323, -362, -352, -314, -306, -306, -287, -287, -302, -309, -338, -362, -326, -294, -304, -311, -367, -451, -304, 217, 848, 993, 55, -1027, -778, -205, -384, -500, -309, -294, -362, -321, -297, -311, -292, -275, -268, -236, -212, -222, -239, -229, -203, -181, -176, -176, -176, -181, -207, -234, -253, -273, -292, -314, -345, -377, -384, -381, -391, -408, -413, -408, -401, -389, -377, -374, -374])
('ECG', 1747494372772987602, [-367, -364, -372, -367, -357, -352, -352, -352, -357, -367, -357, -348, -364, -372, -360, -350, -350, -360, -367, -364, -362, -360, -357, -345, -357, -374, -360, -350, -367, -362, -348, -357, -360, -340, -340, -350, -345, -345, -343, -335, -333, -333, -338, -343, -345, -343, -333, -311, -304, -316, -319, -316, -333, -352, -350, -338, -335, -338, -362, -425, -396, -36, 555, 918, 386, -766, -971, -321, -261, -497, -384, -306, -379])
('ECG', 1747494373334768032, [-360, -319, -328, -309, -277, -287, -290, -268, -256, -248, -232, -217, -210, -200, -198, -212, -232, -236, -241, -258, -280, -299, -319, -343, -369, -381, -384, -389, -401, -408, -406, -396, -391, -384, -372, -362, -360, -360, -357, -355, -352, -357, -357, -350, -350, -355, -357, -355, -352, -352, -352, -360, -362, -360, -360, -355, -345, -345, -340, -338, -345, -345, -335, -331, -333, -331, -328, -331, -333, -331, -323, -321, -323])
('ECG', 1747494373896548462, [-319, -323, -333, -323, -299, -292, -292, -270, -263, -306, -343, -331, -316, -328, -331, -333, -389, -413, -161, 403, 887, 642, -454, -1036, -490, -195, -427, -391, -275, -335, -343, -285, -292, -292, -256, -248, -246, -219, -219, -229, -215, -188, -174, -181, -188, -181, -186, -200, -205, -219, -241, -263, -297, -319, -328, -350, -369, -374, -377, -384, -386, -379, -369, -364, -369, -364, -350, -348, -352, -348, -338, -333, -328])
('ECG', 1747494374458298374, [-323, -328, -338, -338, -333, -343, -350, -335, -323, -328, -323, -314, -309, -316, -333, -321, -306, -319, -319, -309, -304, -306, -304, -294, -282, -275, -285, -302, -309, -316, -328, -328, -311, -304, -314, -299, -280, -294, -302, -275, -258, -285, -319, -311, -299, -319, -331, -321, -357, -381, -99, 505, 928, 623, -408, -995, -558, -236, -374, -360, -282, -323, -316, -265, -268, -270, -256, -236, -227, -239, -229, -193, -169])
('ECG', 1747494375020048286, [-140, -132, -161, -171, -164, -166, -169, -174, -203, -246, -244, -236, -273, -297, -321, -364, -377, -372, -355, -345, -369, -372, -340, -355, -377, -352, -328, -319, -302, -323, -350, -297, -265, -340, -374, -323, -294, -314, -333, -335, -326, -314, -319, -335, -326, -319, -328, -311, -294, -311, -326, -319, -316, -316, -321, -323, -319, -319, -328, -331, -311, -292, -297, -297, -280, -292, -316, -326, -338, -348, -340, -338, -362])
('ECG', 1747494375581828718, [-425, -389, 9, 657, 1007, 379, -836, -1005, -340, -287, -476, -333, -297, -393, -343, -287, -316, -306, -268, -268, -261, -236, -234, -239, -224, -210, -205, -198, -195, -198, -200, -219, -256, -277, -282, -304, -335, -367, -393, -401, -396, -408, -415, -413, -415, -410, -398, -393, -391, -384, -374, -372, -372, -369, -364, -364, -362, -360, -360, -362, -367, -367, -364, -364, -364, -362, -362, -362, -360, -355, -357, -360, -357])
('ECG', 1747494376143578630, [-352, -352, -357, -357, -352, -350, -350, -350, -350, -343, -326, -309, -304, -302, -294, -306, -328, -340, -340, -338, -331, -333, -364, -427, -343, 77, 640, 833, 99, -923, -836, -258, -323, -456, -319, -306, -367, -331, -302, -314, -294, -265, -261, -248, -232, -219, -207, -195, -186, -178, -174, -174, -176, -183, -195, -207, -224, -251, -285, -316, -345, -369, -381, -391, -401, -393, -384, -386, -391, -384, -374, -372, -367])
('ECG', 1747494376705359060, [-364, -362, -350, -340, -340, -338, -335, -340, -343, -340, -348, -352, -348, -338, -338, -335, -331, -335, -348, -348, -338, -335, -343, -340, -333, -333, -335, -340, -333, -314, -299, -290, -280, -280, -290, -311, -326, -328, -328, -326, -319, -326, -372, -408, -232, 270, 802, 732, -277, -1056, -609, -174, -381, -413, -275, -311, -340, -294, -285, -287, -268, -258, -251, -229, -210, -210, -203, -186, -169, -164, -166, -164, -164])
('ECG', 1747494377267108972, [-188, -207, -210, -232, -265, -290, -314, -343, -362, -369, -369, -384, -389, -381, -374, -369, -364, -362, -355, -345, -338, -333, -335, -340, -335, -328, -328, -328, -328, -331, -333, -331, -333, -338, -338, -335, -340, -340, -340, -338, -338, -338, -333, -333, -335, -333, -335, -343, -335, -326, -335, -345, -331, -304, -285, -282, -287, -292, -311, -335, -333, -311, -311, -326, -328, -352, -401, -246, 244, 766, 729, -222, -1017])
('ECG', 1747494377828889402, [-618, -176, -374, -415, -275, -309, -340, -285, -277, -282, -253, -239, -239, -224, -210, -203, -195, -181, -164, -154, -157, -161, -169, -178, -193, -207, -222, -248, -280, -302, -314, -340, -367, -374, -369, -374, -374, -367, -364, -364, -357, -343, -338, -338, -343, -340, -333, -331, -333, -331, -328, -331, -333, -333, -331, -333, -335, -338, -335, -335, -335, -333, -333, -338, -338, -331, -326, -331, -335, -331, -326, -323, -326])
('ECG', 1747494378390639314, [-331, -326, -314, -319, -321, -306, -309, -328, -331, -311, -299, -287, -277, -280, -282, -285, -309, -321, -304, -299, -309, -311, -338, -389, -261, 195, 739, 812, -60, -954, -667, -181, -348, -422, -275, -287, -323, -282, -277, -290, -263, -234, -229, -232, -219, -207, -198, -186, -171, -171, -171, -169, -176, -186, -195, -212, -239, -256, -263, -282, -314, -345, -357, -352, -350, -364, -372, -352, -340, -343, -338, -333, -328])
('ECG', 1747494378952389228, [-326, -314, -306, -319, -323, -319, -323, -328, -323, -321, -333, -335, -323, -328, -343, -343, -333, -335, -343, -343, -343, -340, -333, -331, -333, -338, -338, -333, -331, -335, -335, -323, -319, -328, -335, -328, -319, -306, -302, -297, -287, -294, -323, -331, -321, -321, -321, -321, -338, -391, -406, -118, 471, 903, 519, -611, -1034, -442, -241, -447, -345, -251, -338, -338, -270, -268, -275, -256, -239, -236, -227, -215, -207])
('ECG', 1747494379514169658, [-198, -186, -171, -164, -171, -178, -186, -207, -229, -236, -241, -268, -302, -321, -335, -355, -367, -377, -389, -389, -384, -384, -384, -367, -350, -348, -348, -348, -352, -348, -335, -338, -345, -335, -335, -343, -340, -338, -343, -345, -348, -350, -348, -350, -350, -343, -345, -350, -348, -345, -345, -345, -340, -335, -335, -338, -331, -333, -338, -326, -306, -297, -297, -294, -297, -311, -328, -335, -326, -316, -323, -338, -381])
('ECG', 1747494380075919570, [-408, -159, 430, 937, 652, -538, -1128, -502, -186, -437, -384, -251, -321, -333, -268, -263, -275, -253, -239, -232, -215, -207, -198, -183, -174, -161, -157, -161, -171, -178, -195, -210, -227, -248, -270, -294, -326, -348, -360, -374, -384, -386, -386, -386, -386, -379, -367, -360, -350, -345, -348, -345, -340, -343, -340, -338, -338, -338, -338, -340, -345, -343, -338, -340, -345, -350, -350, -348, -350, -348, -343, -345, -345])
('ECG', 1747494380637679656, [-340, -340, -343, -340, -343, -340, -328, -328, -328, -321, -323, -326, -331, -333, -314, -292, -292, -290, -277, -282, -306, -321, -326, -323, -316, -311, -331, -389, -367, -19, 589, 990, 500, -686, -995, -350, -224, -459, -350, -261, -340, -326, -265, -275, -277, -253, -244, -239, -219, -205, -198, -188, -178, -171, -166, -159, -164, -183, -203, -217, -232, -251, -270, -299, -323, -343, -355, -364, -372, -369, -367, -372, -372])
('ECG', 1747494381199449912, [-362, -352, -352, -348, -345, -335, -326, -326, -328, -321, -319, -321, -323, -323, -321, -326, -328, -328, -326, -328, -326, -326, -328, -328, -328, -323, -326, -328, -321, -314, -319, -316, -309, -309, -309, -306, -302, -299, -299, -304, -309, -311, -304, -287, -270, -268, -268, -265, -280, -304, -306, -302, -304, -302, -302, -348, -377, -149, 393, 889, 710, -340, -1000, -505, -166, -398, -389, -258, -311, -333, -277, -273, -277])
('ECG', 1747494381761199824, [-256, -244, -239, -224, -212, -203, -186, -174, -171, -161, -149, -154, -178, -198, -203, -215, -234, -251, -280, -306, -323, -340, -355, -355, -357, -364, -369, -364, -360, -352, -343, -345, -343, -331, -326, -333, -333, -326, -326, -328, -328, -321, -323, -331, -326, -328, -335, -335, -338, -340, -331, -328, -326, -323, -321, -321, -323, -331, -331, -316, -316, -323, -321, -314, -314, -314, -314, -309, -302, -304, -306, -304, -304])
('ECG', 1747494382322949738, [-311, -316, -309, -282, -263, -270, -277, -277, -294, -319, -306, -290, -299, -306, -326, -384, -348, 2, 572, 911, 381, -744, -957, -328, -236, -439, -333, -263, -326, -306, -265, -275, -270, -248, -244, -239, -222, -210, -203, -190, -178, -174, -174, -174, -174, -178, -198, -219, -229, -244, -268, -292, -309, -321, -340, -362, -374, -372, -372, -377, -369, -357, -355, -348, -340, -345, -348, -343, -340, -333, -323, -328, -338])
('ECG', 1747494382884699650, [-338, -340, -343, -345, -343, -338, -343, -352, -338, -316, -326, -335, -323, -321, -331, -328, -323, -328, -331, -323, -314, -309, -316, -316, -311, -314, -319, -319, -311, -294, -280, -282, -282, -273, -285, -316, -323, -314, -316, -321, -331, -379, -403, -149, 425, 908, 606, -563, -1119, -495, -200, -425, -357, -246, -323, -328, -265, -265, -275, -253, -239, -236, -219, -200, -195, -186, -171, -166, -166, -169, -176, -188, -203])
('ECG', 1747494383446480080, [-212, -219, -246, -270, -292, -316, -333, -340, -355, -367, -364, -364, -372, -362, -350, -350, -345, -333, -331, -333, -331, -326, -323, -326, -326, -321, -319, -326, -331, -326, -323, -326, -326, -328, -331, -328, -321, -321, -326, -323, -319, -319, -321, -319, -311, -306, -309, -311, -311, -306, -302, -304, -304, -297, -299, -304, -304, -306, -309, -299, -280, -270, -270, -268, -268, -282, -294, -302, -302, -297, -299, -316, -367])
('ECG', 1747494384008229992, [-357, -55, 519, 925, 502, -618, -976, -364, -195, -427, -345, -253, -328, -319, -263, -270, -270, -246, -236, -229, -217, -207, -193, -181, -174, -161, -154, -161, -174, -181, -193, -210, -229, -246, -261, -280, -304, -326, -338, -352, -367, -372, -369, -364, -364, -357, -348, -338, -328, -323, -326, -323, -321, -323, -323, -323, -328, -333, -323, -306, -314, -326, -321, -319, -323, -326, -323, -323, -323, -321, -316, -311, -306])
('ECG', 1747494384569979904, [-309, -311, -311, -309, -309, -306, -304, -302, -299, -294, -292, -290, -287, -290, -297, -299, -304, -304, -292, -277, -268, -261, -261, -280, -297, -299, -306, -306, -299, -306, -338, -381, -282, 145, 713, 853, 38, -942, -744, -176, -297, -430, -285, -280, -338, -290, -263, -285, -261, -236, -239, -222, -200, -200, -195, -178, -171, -171, -169, -171, -181, -188, -190, -207, -244, -265, -273, -304, -335, -335, -338, -355, -369])
('ECG', 1747494385131729816, [-379, -379, -381, -396, -379, -333, -331, -360, -360, -333, -326, -338, -340, -345, -362, -367, -350, -343, -348, -340, -340, -357, -372, -364, -343, -343, -357, -348, -335, -343, -335, -338, -348, -331, -323, -335, -338, -338, -345, -326, -319, -335, -323, -314, -323, -323, -319, -306, -290, -285, -280, -282, -297, -319, -345, -338, -304, -319, -345, -348, -360, -219, 256, 768, 611, -415, -1058, -558, -195, -384, -352, -244, -316])
('ECG', 1747494385693479730, [-321, -248, -251, -268, -248, -246, -253, -227, -181, -159, -164, -178, -188, -169, -149, -157, -166, -193, -222, -224, -234, -251, -263, -292, -326, -338, -343, -345, -352, -379, -393, -381, -355, -333, -323, -331, -333, -328, -321, -314, -321, -333, -333, -316, -311, -338, -338, -309, -326, -345, -326, -328, -326, -309, -338, -360, -321, -302, -323, -321, -311, -331, -338, -328, -321, -302, -297, -326, -323, -299, -321, -335, -287])
('ECG', 1747494386255229642, [-258, -290, -282, -265, -319, -352, -311, -292, -321, -321, -321, -379, -386, -128, 406, 877, 594, -594, -1181, -524, -176, -420, -364, -224, -319, -343, -248, -251, -285, -239, -215, -236, -217, -181, -183, -188, -176, -181, -190, -171, -161, -186, -212, -227, -244, -261, -265, -287, -319, -335, -362, -377, -360, -364, -381, -369, -362, -367, -360, -348, -357, -362, -335, -323, -335, -343, -350, -345, -333, -340, -343, -331, -343])
('ECG', 1747494386817010072, [-362, -345, -331, -352, -350, -326, -343, -360, -350, -340, -316, -302, -326, -331, -311, -331, -340, -304, -302, -328, -321, -299, -302, -302, -275, -261, -282, -302, -309, -328, -326, -302, -306, -333, -345, -355, -164, 369, 889, 693, -456, -1186, -616, -171, -369, -372, -248, -292, -316, -273, -253, -251, -232, -212, -222, -229, -215, -183, -152, -152, -154, -157, -183, -195, -166, -176, -217, -217, -224, -261, -282, -302, -328])
('ECG', 1747494387378759984, [-348, -362, -374, -362, -348, -360, -360, -340, -345, -343, -326, -326, -331, -311, -302, -319, -316, -299, -299, -314, -323, -316, -311, -331, -311, -275, -311, -352, -328, -319, -340, -343, -331, -335, -338, -321, -316, -338, -333, -316, -316, -319, -321, -323, -304, -304, -340, -335, -294, -280, -285, -273, -265, -285, -314, -331, -323, -309, -309, -321, -331, -369, -285, 157, 744, 872, 24, -988, -795, -210, -311, -422, -280])
('ECG', 1747494387940509896, [-280, -328, -287, -273, -273, -239, -227, -232, -215, -200, -195, -190, -171, -147, -157, -178, -186, -181, -190, -217, -217, -210, -241, -280, -297, -311, -328, -355, -369, -355, -348, -350, -350, -355, -352, -338, -333, -331, -321, -323, -331, -323, -314, -319, -331, -328, -328, -331, -326, -316, -323, -335, -333, -331, -340, -355, -338, -314, -323, -331, -323, -333, -331, -323, -350, -352, -302, -294, -331, -338, -328, -335, -335])
('ECG', 1747494388502259808, [-287, -246, -273, -292, -280, -299, -314, -304, -309, -314, -304, -306, -345, -372, -169, 333, 816, 671, -374, -1082, -575, -171, -391, -391, -236, -282, -331, -287, -258, -263, -263, -251, -239, -229, -222, -205, -176, -174, -193, -176, -154, -176, -205, -210, -222, -248, -270, -268, -263, -297, -338, -348, -357, -384, -386, -367, -360, -367, -362, -355, -348, -345, -350, -343, -323, -323, -326, -323, -328, -328, -331, -338, -335])
('ECG', 1747494389064009722, [-316, -314, -321, -323, -326, -335, -333, -333, -335, -316, -306, -323, -333, -323, -321, -314, -304, -321, -340, -338, -333, -326, -319, -302, -282, -280, -290, -299, -314, -323, -316, -306, -302, -302, -333, -401, -328, 123, 773, 1046, 236, -993, -945, -261, -311, -451, -277, -265, -326, -270, -253, -275, -248, -224, -232, -224, -198, -186, -186, -183, -164, -145, -147, -154, -166, -193, -210, -219, -236, -256, -270, -294, -323])
('ECG', 1747494389625759634, [-338, -343, -360, -372, -369, -369, -372, -362, -352, -348, -338, -328, -328, -326, -319, -314, -319, -316, -302, -302, -309, -304, -306, -316, -316, -314, -316, -319, -323, -321, -314, -316, -319, -311, -309, -314, -316, -314, -316, -319, -316, -314, -306, -292, -277, -277, -275, -277, -299, -311, -304, -302, -302, -299, -314, -377, -362, -19, 582, 949, 393, -790, -995, -321, -219, -413, -297, -239, -306, -282, -239, -248, -241])
('ECG', 1747494390187509546, [-217, -210, -203, -186, -176, -169, -164, -157, -140, -130, -142, -149, -157, -176, -193, -203, -227, -263, -277, -282, -314, -345, -345, -348, -364, -360, -348, -350, -345, -328, -316, -321, -323, -316, -314, -316, -311, -309, -306, -306, -309, -309, -304, -304, -306, -302, -302, -309, -319, -311, -297, -304, -316, -314, -306, -306, -309, -304, -304, -309, -309, -302, -302, -306, -309, -311, -306, -297, -285, -270, -261, -261, -270])
('ECG', 1747494390749259458, [-287, -302, -304, -302, -302, -299, -302, -343, -357, -111, 439, 908, 630, -473, -1007, -442, -161, -391, -352, -236, -294, -304, -256, -256, -256, -229, -219, -217, -203, -195, -183, -164, -157, -145, -135, -140, -147, -157, -174, -186, -203, -224, -241, -263, -292, -314, -333, -348, -352, -348, -350, -355, -350, -343, -338, -328, -323, -328, -331, -321, -306, -306, -314, -314, -311, -311, -311, -311, -309, -311, -314, -316, -326])
('ECG', 1747494391311009370, [-335, -328, -319, -311, -314, -319, -321, -319, -314, -311, -314, -314, -314, -314, -314, -314, -316, -314, -314, -314, -302, -290, -282, -275, -265, -270, -282, -294, -311, -311, -292, -290, -311, -350, -381, -190, 333, 860, 768, -268, -1053, -592, -157, -362, -389, -251, -287, -314, -263, -258, -265, -236, -222, -229, -217, -198, -188, -169, -149, -137, -137, -140, -149, -169, -183, -195, -219, -239, -251, -261, -285, -323, -343])
('ECG', 1747494391872759282, [-338, -350, -369, -364, -362, -377, -360, -326, -331, -338, -314, -311, -335, -328, -309, -319, -321, -302, -302, -311, -314, -309, -309, -311, -311, -316, -321, -323, -326, -326, -316, -314, -326, -323, -309, -316, -328, -319, -314, -316, -316, -314, -314, -328, -333, -319, -297, -285, -282, -280, -292, -319, -311, -292, -306, -321, -314, -314, -362, -413, -215, 348, 918, 809, -338, -1164, -623, -171, -406, -396, -244, -299, -321])
('ECG', 1747494392434509196, [-261, -268, -280, -246, -232, -234, -217, -198, -190, -176, -161, -152, -145, -152, -171, -186, -193, -207, -222, -244, -273, -292, -304, -323, -348, -364, -372, -367, -367, -379, -379, -364, -355, -350, -343, -343, -345, -338, -328, -323, -321, -321, -328, -321, -309, -314, -323, -328, -321, -314, -331, -350, -338, -338, -360, -338, -299, -316, -335, -328, -331, -338, -328, -323, -328, -331, -328, -328, -331, -323, -306, -309, -321])
('ECG', 1747494392996259108, [-314, -304, -297, -280, -268, -258, -258, -290, -314, -302, -292, -297, -285, -297, -360, -348, -79, 444, 911, 640, -512, -1061, -447, -166, -413, -364, -251, -319, -319, -253, -248, -248, -232, -227, -222, -210, -210, -198, -176, -166, -161, -161, -171, -181, -178, -186, -193, -203, -224, -256, -280, -304, -331, -352, -360, -348, -345, -364, -369, -357, -352, -355, -350, -343, -331, -323, -323, -326, -319, -297, -294, -306, -294])
('ECG', 1747494393557993762, [-285, -304, -328, -326, -306, -294, -306, -306, -304, -316, -306, -297, -316, -321, -306, -306, -316, -309, -297, -299, -299, -306, -316, -314, -302, -290, -273, -268, -277, -287, -297, -309, -304, -282, -265, -261, -253, -241, -251, -287, -292, -265, -280, -311, -304, -314, -372, -268, 178, 749, 920, 108, -959, -814, -222, -311, -418, -268, -280, -328, -275, -275, -302, -244, -183, -207, -224, -200, -195, -183, -159, -169, -181])
('ECG', 1747494394119728414, [-157, -132, -164, -193, -183, -205, -239, -253, -287, -292, -263, -304, -364, -355, -340, -355, -364, -372, -369, -355, -355, -350, -319, -326, -348, -319, -304, -328, -331, -311, -311, -328, -331, -321, -321, -335, -340, -323, -316, -335, -340, -326, -328, -331, -326, -333, -335, -323, -316, -314, -323, -335, -323, -297, -280, -282, -306, -319, -309, -302, -302, -306, -306, -285, -258, -253, -265, -273, -275, -304, -328, -302, -277])
('ECG', 1747494394681478326, [-302, -326, -357, -384, -164, 403, 988, 860, -345, -1150, -565, -149, -422, -420, -246, -287, -326, -270, -265, -285, -256, -224, -229, -219, -200, -205, -198, -161, -145, -159, -164, -161, -178, -200, -212, -224, -229, -248, -280, -304, -326, -345, -355, -372, -384, -377, -367, -374, -377, -355, -335, -343, -350, -340, -338, -331, -321, -326, -331, -321, -311, -319, -323, -316, -326, -338, -331, -323, -331, -338, -343, -340, -328])
('ECG', 1747494395243197720, [-316, -299, -290, -294, -299, -304, -326, -335, -290, -253, -290, -321, -316, -304, -292, -302, -316, -299, -294, -299, -265, -241, -263, -277, -275, -302, -335, -306, -263, -290, -331, -362, -372, -108, 480, 990, 686, -546, -1106, -442, -161, -432, -360, -236, -328, -340, -258, -256, -280, -241, -217, -232, -219, -203, -203, -193, -171, -157, -147, -145, -149, -166, -186, -207, -227, -241, -244, -263, -304, -319, -331, -360, -377])
('ECG', 1747494395804947634, [-367, -360, -364, -364, -357, -350, -333, -338, -362, -343, -297, -299, -319, -316, -311, -321, -321, -306, -299, -311, -321, -314, -304, -309, -326, -319, -290, -302, -316, -304, -311, -306, -285, -292, -292, -277, -306, -309, -263, -280, -314, -285, -270, -309, -316, -304, -275, -227, -241, -265, -244, -258, -297, -302, -290, -299, -304, -282, -302, -386, -290, 186, 778, 974, 183, -949, -850, -198, -280, -437, -277, -273, -345])
('ECG', 1747494396366697546, [-292, -258, -268, -244, -236, -246, -222, -195, -195, -186, -161, -154, -154, -145, -145, -161, -171, -169, -188, -219, -232, -246, -290, -316, -319, -338, -357, -340, -338, -362, -357, -333, -323, -331, -338, -328, -319, -326, -311, -309, -350, -328, -263, -292, -328, -299, -297, -326, -319, -316, -321, -316, -319, -314, -306, -326, -328, -299, -302, -319, -304, -297, -304, -306, -306, -306, -304, -311, -311, -297, -285, -280, -280])
('ECG', 1747494396928416940, [-277, -265, -270, -294, -304, -294, -294, -297, -299, -345, -384, -176, 369, 932, 860, -248, -1119, -628, -152, -374, -381, -227, -292, -331, -263, -246, -258, -236, -224, -222, -207, -193, -183, -164, -152, -147, -145, -147, -157, -161, -171, -198, -217, -219, -239, -268, -290, -309, -331, -345, -348, -348, -352, -362, -357, -345, -338, -331, -321, -314, -314, -304, -294, -299, -306, -306, -304, -302, -299, -304, -311, -306, -302])
('ECG', 1747494397490166852, [-309, -311, -306, -306, -311, -304, -302, -306, -304, -294, -294, -292, -282, -282, -290, -297, -299, -292, -263, -239, -246, -253, -251, -268, -290, -290, -280, -277, -277, -292, -345, -345, -50, 517, 908, 444, -686, -961, -326, -186, -386, -287, -227, -304, -277, -232, -248, -239, -205, -200, -195, -176, -171, -169, -154, -142, -135, -135, -140, -149, -157, -174, -193, -210, -236, -258, -275, -302, -319, -326, -338, -350, -348])
('ECG', 1747494398051916764, [-345, -345, -340, -331, -328, -321, -304, -302, -306, -302, -299, -302, -302, -304, -299, -294, -302, -306, -302, -304, -311, -316, -311, -304, -304, -306, -302, -302, -311, -314, -311, -314, -309, -294, -277, -268, -268, -270, -280, -299, -316, -306, -290, -292, -299, -326, -377, -268, 186, 746, 841, -24, -990, -732, -169, -297, -393, -244, -256, -306, -256, -236, -248, -229, -215, -207, -190, -181, -166, -149, -145, -137, -125])
('ECG', 1747494398613636158, [-130, -140, -147, -159, -174, -186, -198, -219, -246, -273, -299, -314, -328, -343, -340, -340, -340, -331, -316, -316, -319, -311, -302, -302, -304, -304, -299, -299, -299, -299, -302, -304, -306, -311, -309, -297, -297, -311, -309, -299, -302, -304, -302, -304, -311, -314, -304, -290, -270, -263, -268, -273, -294, -311, -304, -297, -306, -311, -304, -331, -379, -246, 217, 749, 783, -125, -1010, -679, -171, -326, -384, -239, -270])
('ECG', 1747494399175386072, [-316, -256, -234, -248, -227, -205, -205, -198, -181, -171, -161, -149, -137, -132, -137, -149, -157, -161, -178, -203, -215, -224, -253, -290, -311, -326, -338, -343, -343, -338, -343, -348, -335, -319, -316, -321, -319, -314, -316, -314, -302, -304, -309, -306, -311, -319, -316, -311, -306, -311, -321, -321, -311, -302, -302, -309, -314, -309, -304, -309, -309, -304, -306, -294, -275, -275, -275, -263, -270, -306, -316, -302, -299])
('ECG', 1747494399737125812, [-306, -309, -321, -369, -372, -87, 488, 913, 488, -684, -1044, -398, -215, -415, -314, -232, -304, -285, -241, -258, -244, -210, -210, -210, -190, -174, -164, -159, -149, -142, -142, -147, -157, -174, -188, -198, -212, -224, -241, -268, -287, -302, -319, -328, -328, -331, -328, -326, -319, -309, -304, -297, -287, -287, -292, -292, -292, -292, -292, -292, -292, -292, -297, -297, -299, -297, -294, -299, -299, -294, -297, -299, -294])
('ECG', 1747494400298870638, [-292, -294, -294, -290, -292, -294, -290, -287, -294, -292, -292, -299, -294, -273, -251, -244, -246, -248, -258, -280, -294, -294, -287, -282, -290, -321, -369, -256, 190, 746, 833, -31, -961, -688, -159, -306, -396, -251, -265, -309, -256, -239, -248, -227, -210, -207, -190, -181, -181, -166, -149, -147, -147, -140, -145, -157, -169, -183, -198, -215, -229, -246, -265, -287, -302, -311, -316, -316, -319, -326, -323, -311, -306])
('ECG', 1747494400860605290, [-304, -297, -290, -287, -290, -287, -282, -285, -290, -285, -282, -287, -292, -292, -292, -294, -297, -297, -294, -294, -297, -297, -297, -292, -287, -290, -292, -292, -290, -292, -290, -280, -280, -290, -280, -270, -273, -282, -280, -275, -275, -277, -277, -275, -275, -280, -287, -285, -273, -263, -256, -251, -248, -258, -282, -290, -285, -282, -280, -285, -309, -367, -319, 58, 638, 925, 297, -775, -824, -224, -241, -422, -292])
('ECG', 1747494401422324684, [-244, -302, -268, -234, -251, -236, -210, -212, -207, -193, -188, -181, -166, -149, -142, -147, -154, -157, -176, -203, -210, -212, -229, -239, -244, -265, -290, -292, -297, -309, -316, -319, -314, -306, -306, -309, -297, -285, -290, -294, -290, -290, -292, -290, -290, -292, -297, -299, -299, -304, -309, -304, -302, -302, -302, -306, -306, -294, -297, -306, -299, -294, -297, -297, -299, -297, -294, -299, -299, -294, -294, -297, -294])
('ECG', 1747494401984074596, [-292, -294, -292, -287, -285, -297, -302, -280, -256, -253, -256, -248, -251, -275, -299, -297, -273, -263, -277, -299, -348, -343, -41, 536, 949, 517, -640, -995, -360, -183, -393, -299, -215, -282, -275, -227, -236, -232, -205, -203, -200, -178, -171, -169, -154, -147, -149, -147, -152, -169, -183, -198, -210, -224, -236, -246, -261, -277, -294, -302, -306, -316, -326, -326, -316, -311, -314, -304, -297, -299, -302, -294, -287])
('ECG', 1747494402545793992, [-290, -292, -292, -292, -292, -292, -292, -290, -294, -290, -280, -285, -292, -292, -287, -290, -292, -290, -285, -290, -290, -285, -282, -282, -282, -280, -282, -285, -280, -273, -275, -275, -270, -270, -265, -263, -270, -273, -265, -261, -263, -265, -268, -273, -268, -256, -239, -236, -239, -236, -246, -273, -280, -273, -270, -270, -280, -326, -355, -152, 360, 860, 734, -275, -961, -495, -137, -360, -362, -229, -280, -299, -244])
('ECG', 1747494403107543904, [-241, -248, -222, -207, -203, -188, -178, -174, -161, -149, -149, -154, -154, -157, -166, -188, -207, -217, -227, -239, -248, -268, -292, -302, -306, -319, -326, -326, -326, -319, -309, -309, -302, -294, -297, -292, -287, -292, -292, -282, -285, -294, -294, -292, -292, -292, -292, -294, -292, -287, -287, -290, -287, -287, -287, -287, -287, -285, -290, -290, -280, -275, -275, -273, -277, -282, -275, -270, -270, -265, -263, -265, -265])
('ECG', 1747494403669263298, [-268, -265, -263, -268, -265, -261, -268, -270, -268, -270, -270, -258, -248, -239, -232, -232, -241, -258, -275, -273, -265, -265, -268, -292, -345, -306, 36, 589, 906, 367, -691, -831, -244, -205, -398, -287, -234, -302, -273, -229, -244, -241, -217, -210, -198, -183, -178, -174, -159, -152, -154, -154, -152, -161, -181, -193, -203, -217, -236, -251, -265, -275, -285, -299, -309, -314, -316, -314, -306, -304, -299, -292, -290])
('ECG', 1747494404231013210, [-285, -277, -275, -275, -273, -275, -275, -268, -265, -270, -280, -280, -275, -275, -277, -280, -282, -282, -282, -280, -280, -282, -280, -277, -277, -280, -280, -277, -273, -277, -280, -275, -280, -285, -275, -268, -265, -265, -273, -275, -273, -270, -270, -273, -268, -258, -265, -273, -273, -273, -270, -261, -246, -241, -236, -232, -244, -270, -277, -268, -268, -275, -277, -302, -350, -241, 195, 737, 843, 19, -920, -698, -169])
('ECG', 1747494404792732604, [-285, -379, -239, -239, -290, -258, -236, -234, -212, -205, -207, -186, -169, -166, -161, -152, -147, -145, -147, -157, -169, -181, -198, -215, -219, -229, -246, -261, -282, -302, -311, -311, -319, -323, -316, -304, -302, -309, -304, -290, -287, -292, -290, -280, -277, -282, -282, -275, -275, -285, -285, -282, -287, -290, -287, -290, -292, -290, -287, -287, -287, -292, -292, -282, -280, -290, -282, -275, -282, -287, -277, -273, -277])
('ECG', 1747494405354451998, [-280, -280, -280, -282, -270, -261, -270, -277, -268, -265, -273, -273, -268, -268, -263, -248, -241, -236, -232, -246, -270, -280, -280, -277, -277, -282, -304, -355, -261, 174, 732, 865, 43, -942, -734, -169, -280, -381, -234, -234, -282, -239, -224, -234, -210, -193, -195, -183, -161, -157, -154, -140, -135, -137, -135, -142, -157, -166, -174, -190, -210, -222, -236, -258, -275, -282, -292, -304, -309, -311, -311, -304, -302])
('ECG', 1747494405916171394, [-297, -285, -282, -282, -277, -277, -273, -265, -270, -275, -268, -268, -273, -273, -270, -280, -280, -273, -273, -277, -277, -277, -275, -275, -280, -280, -280, -277, -275, -275, -277, -270, -263, -261, -263, -268, -270, -270, -265, -263, -265, -263, -261, -261, -265, -261, -261, -265, -265, -263, -268, -263, -244, -232, -234, -232, -229, -246, -268, -280, -277, -268, -265, -282, -335, -343, -74, 473, 899, 572, -500, -940, -377])
('ECG', 1747494406477921306, [-154, -379, -328, -227, -280, -280, -239, -244, -239, -212, -207, -195, -176, -169, -166, -154, -147, -142, -137, -137, -149, -159, -166, -186, -203, -212, -227, -241, -261, -282, -297, -304, -311, -319, -323, -316, -314, -314, -306, -294, -292, -287, -282, -280, -282, -282, -275, -273, -282, -287, -285, -277, -285, -290, -280, -280, -294, -294, -290, -294, -292, -290, -292, -294, -285, -280, -294, -297, -282, -280, -290, -285, -277])
('ECG', 1747494407039640700, [-280, -282, -282, -280, -275, -277, -280, -270, -263, -270, -273, -273, -275, -277, -277, -277, -268, -251, -239, -236, -236, -241, -256, -280, -282, -275, -277, -282, -285, -323, -362, -169, 355, 882, 800, -229, -1024, -580, -154, -357, -364, -227, -275, -292, -232, -232, -246, -224, -207, -200, -188, -176, -161, -154, -149, -140, -135, -147, -154, -164, -181, -198, -207, -219, -239, -258, -275, -292, -302, -302, -309, -326, -331])
('ECG', 1747494407601360094, [-328, -323, -316, -311, -306, -302, -294, -287, -287, -282, -275, -277, -277, -270, -270, -280, -277, -273, -277, -282, -280, -282, -282, -280, -280, -282, -285, -285, -280, -280, -280, -280, -280, -275, -273, -277, -277, -270, -275, -280, -277, -273, -268, -268, -268, -268, -268, -270, -265, -268, -275, -268, -246, -232, -232, -227, -227, -246, -268, -275, -275, -270, -270, -282, -328, -355, -137, 393, 894, 732, -319, -986, -480])
('ECG', 1747494408163110006, [-132, -367, -348, -210, -273, -294, -229, -222, -236, -217, -198, -195, -181, -159, -149, -145, -137, -132, -130, -123, -125, -142, -159, -171, -188, -207, -222, -244, -277, -292, -297, -311, -328, -331, -321, -321, -319, -311, -306, -304, -302, -292, -285, -285, -282, -273, -268, -273, -280, -277, -273, -275, -280, -277, -277, -285, -285, -277, -282, -285, -282, -282, -285, -282, -285, -285, -273, -273, -275, -268, -268, -275, -277])
('ECG', 1747494408724829400, [-277, -273, -270, -270, -270, -268, -265, -261, -261, -265, -265, -265, -268, -270, -273, -277, -265, -246, -236, -232, -229, -241, -258, -277, -285, -280, -275, -282, -292, -331, -352, -137, 391, 884, 722, -314, -983, -490, -137, -367, -362, -227, -277, -306, -253, -248, -251, -219, -207, -207, -190, -176, -176, -169, -157, -145, -142, -145, -147, -149, -164, -183, -200, -210, -229, -256, -277, -294, -302, -309, -323, -331, -326])
('ECG', 1747494409286548796, [-323, -328, -319, -311, -311, -297, -287, -294, -290, -275, -280, -294, -292, -275, -277, -287, -287, -285, -287, -292, -287, -282, -290, -304, -299, -287, -282, -282, -282, -287, -292, -290, -285, -285, -290, -282, -273, -285, -285, -273, -273, -280, -280, -277, -282, -285, -282, -280, -277, -265, -246, -244, -239, -232, -251, -277, -282, -280, -277, -273, -280, -328, -374, -195, 328, 877, 826, -207, -1061, -628, -157, -348, -367])
('ECG', 1747494409848268190, [-222, -265, -290, -227, -222, -239, -215, -200, -200, -174, -147, -149, -145, -128, -123, -123, -123, -128, -140, -157, -176, -190, -205, -229, -253, -275, -287, -299, -321, -331, -323, -326, -331, -319, -304, -302, -297, -290, -282, -280, -280, -273, -263, -268, -268, -258, -256, -270, -277, -275, -270, -268, -268, -268, -270, -270, -268, -268, -273, -277, -270, -263, -265, -268, -268, -268, -270, -270, -268, -263, -263, -265, -263])
('ECG', 1747494410410018102, [-261, -263, -268, -270, -270, -270, -253, -232, -227, -232, -219, -219, -246, -270, -270, -263, -261, -268, -292, -335, -248, 174, 744, 911, 130, -877, -734, -166, -263, -391, -244, -232, -292, -253, -224, -239, -224, -198, -186, -181, -169, -147, -132, -123, -116, -108, -111, -120, -130, -137, -152, -169, -183, -207, -236, -258, -280, -302, -319, -326, -335, -340, -333, -328, -331, -323, -311, -306, -302, -292, -294, -297, -290])
('ECG', 1747494410971737496, [-275, -273, -277, -280, -273, -270, -275, -277, -270, -275, -287, -285, -270, -273, -282, -280, -273, -277, -285, -280, -275, -280, -282, -280, -275, -277, -280, -275, -270, -270, -273, -268, -268, -277, -282, -263, -244, -234, -232, -229, -232, -253, -280, -285, -275, -265, -265, -280, -319, -364, -251, 190, 751, 894, 94, -901, -729, -176, -285, -391, -246, -258, -314, -256, -222, -241, -224, -203, -203, -195, -176, -161, -152])
('ECG', 1747494411533456890, [-132, -125, -132, -137, -130, -130, -147, -166, -176, -190, -212, -232, -258, -292, -314, -323, -328, -335, -340, -335, -333, -340, -328, -304, -299, -302, -292, -292, -302, -299, -282, -277, -287, -290, -280, -273, -270, -275, -287, -297, -294, -287, -280, -280, -285, -285, -280, -280, -275, -280, -290, -285, -273, -275, -275, -270, -273, -270, -268, -282, -275, -251, -246, -251, -246, -236, -241, -258, -275, -287, -285, -275, -273])
('ECG', 1747494412095176286, [-294, -352, -350, -50, 551, 1015, 582, -652, -1046, -374, -181, -403, -304, -212, -280, -258, -210, -227, -222, -195, -188, -181, -164, -152, -147, -137, -125, -113, -108, -116, -130, -140, -154, -176, -193, -210, -229, -256, -285, -309, -321, -328, -333, -333, -333, -333, -326, -316, -309, -304, -299, -302, -294, -285, -290, -290, -282, -280, -280, -280, -282, -285, -290, -297, -292, -285, -282, -285, -287, -285, -285, -287, -282])
('ECG', 1747494412656921112, [-277, -273, -268, -265, -268, -273, -268, -258, -251, -253, -256, -261, -263, -248, -229, -222, -219, -217, -229, -253, -265, -263, -261, -261, -265, -294, -348, -273, 140, 729, 974, 270, -819, -800, -186, -227, -391, -251, -224, -292, -258, -222, -227, -207, -195, -193, -176, -157, -152, -140, -123, -116, -120, -120, -111, -113, -130, -142, -154, -181, -210, -234, -258, -285, -304, -319, -328, -335, -338, -326, -319, -323, -314])
('ECG', 1747494413218645592, [-294, -294, -297, -290, -282, -277, -280, -282, -282, -275, -275, -282, -277, -268, -275, -282, -280, -275, -277, -280, -282, -285, -290, -292, -282, -275, -280, -277, -265, -268, -277, -270, -261, -270, -275, -263, -258, -273, -277, -261, -239, -227, -229, -229, -234, -246, -261, -275, -273, -261, -263, -280, -319, -352, -181, 321, 862, 845, -128, -993, -609, -130, -323, -364, -212, -251, -287, -232, -229, -244, -210, -186, -195])
('ECG', 1747494413780364986, [-188, -157, -145, -145, -132, -120, -118, -120, -125, -128, -135, -154, -171, -176, -203, -246, -270, -285, -299, -314, -323, -328, -331, -331, -326, -321, -321, -316, -304, -299, -299, -290, -282, -280, -290, -290, -282, -277, -282, -292, -297, -294, -292, -290, -282, -285, -294, -292, -294, -304, -297, -280, -282, -287, -277, -280, -292, -282, -263, -265, -277, -277, -277, -273, -256, -239, -236, -239, -232, -239, -265, -280, -273])
('ECG', 1747494414342084380, [-268, -268, -265, -287, -348, -340, -9, 613, 1041, 558, -679, -1034, -348, -166, -389, -292, -207, -275, -261, -215, -234, -229, -188, -178, -183, -169, -147, -142, -135, -120, -116, -116, -116, -120, -135, -149, -166, -186, -207, -232, -258, -280, -292, -306, -328, -333, -331, -333, -338, -328, -314, -309, -306, -297, -287, -287, -285, -277, -277, -277, -275, -275, -282, -285, -280, -280, -285, -280, -275, -277, -280, -282, -287])
('ECG', 1747494414903803774, [-282, -275, -277, -280, -273, -273, -273, -268, -270, -273, -273, -270, -265, -261, -261, -261, -261, -261, -258, -258, -263, -268, -253, -234, -222, -224, -229, -224, -234, -261, -265, -256, -256, -253, -258, -297, -350, -210, 290, 879, 942, 16, -918, -618, -113, -294, -379, -227, -241, -287, -234, -219, -239, -219, -190, -183, -183, -166, -147, -140, -132, -120, -113, -116, -116, -118, -128, -149, -169, -186, -205, -232, -258])
('ECG', 1747494415465523168, [-277, -294, -314, -328, -323, -311, -314, -326, -316, -302, -297, -294, -287, -285, -290, -285, -277, -275, -275, -285, -290, -280, -268, -273, -277, -275, -282, -285, -277, -275, -287, -299, -292, -285, -275, -270, -277, -282, -275, -277, -277, -273, -273, -275, -263, -258, -263, -261, -258, -263, -263, -258, -261, -268, -275, -263, -244, -234, -234, -232, -229, -234, -258, -277, -270, -258, -265, -270, -280, -343, -309, 79, 676])
('ECG', 1747494416027242564, [974, 352, -773, -874, -244, -215, -389, -268, -239, -297, -244, -210, -232, -219, -193, -183, -176, -171, -161, -140, -128, -125, -113, -108, -120, -132, -145, -159, -169, -178, -198, -219, -244, -265, -290, -304, -311, -323, -338, -340, -326, -321, -323, -314, -304, -304, -297, -282, -282, -290, -287, -280, -282, -290, -285, -280, -285, -290, -290, -290, -294, -299, -290, -285, -292, -290, -285, -292, -292, -282, -285, -287, -277])
('ECG', 1747494416588961958, [-265, -270, -275, -268, -270, -277, -270, -258, -265, -273, -263, -256, -263, -270, -253, -232, -232, -234, -224, -236, -261, -270, -268, -261, -263, -268, -292, -357, -277, 178, 802, 1010, 171, -971, -826, -178, -273, -406, -239, -229, -294, -244, -207, -229, -217, -193, -188, -181, -164, -152, -142, -132, -125, -118, -116, -125, -137, -147, -166, -186, -198, -212, -236, -261, -290, -306, -314, -323, -335, -338, -328, -326, -326])
('ECG', 1747494417150681352, [-319, -306, -302, -299, -294, -287, -287, -282, -273, -270, -275, -275, -270, -268, -273, -270, -265, -273, -280, -270, -268, -275, -270, -265, -270, -270, -263, -265, -265, -261, -256, -256, -258, -256, -251, -251, -253, -258, -263, -253, -248, -253, -251, -246, -251, -253, -256, -258, -246, -227, -215, -217, -222, -227, -236, -251, -265, -263, -258, -263, -275, -321, -326, -43, 531, 990, 664, -468, -942, -352, -137, -381, -319])
('ECG', 1747494417712400746, [-212, -282, -285, -232, -234, -229, -200, -190, -183, -164, -152, -145, -130, -120, -118, -116, -113, -118, -128, -135, -145, -171, -195, -215, -236, -258, -282, -302, -314, -319, -319, -319, -321, -319, -314, -314, -304, -292, -290, -292, -282, -273, -275, -275, -273, -273, -275, -270, -265, -265, -268, -270, -265, -265, -268, -265, -261, -265, -270, -268, -265, -268, -270, -268, -263, -261, -265, -261, -258, -263, -263, -253, -246])
('ECG', 1747494418274120140, [-261, -268, -253, -248, -256, -253, -246, -248, -253, -261, -268, -253, -229, -215, -212, -215, -224, -248, -270, -265, -261, -265, -261, -268, -323, -340, -87, 456, 930, 703, -377, -971, -432, -135, -379, -345, -212, -275, -290, -234, -236, -239, -210, -200, -195, -181, -166, -154, -145, -128, -111, -120, -137, -128, -125, -157, -178, -176, -188, -219, -244, -258, -280, -311, -323, -326, -331, -331, -328, -326, -319, -314, -304])
('ECG', 1747494418835839534, [-294, -290, -292, -287, -282, -285, -287, -275, -256, -258, -268, -268, -268, -275, -277, -275, -273, -273, -277, -275, -263, -270, -282, -273, -268, -275, -273, -268, -275, -277, -265, -263, -270, -263, -256, -258, -265, -263, -265, -270, -268, -256, -241, -229, -232, -232, -227, -248, -277, -282, -273, -275, -280, -280, -321, -357, -101, 495, 998, 725, -451, -1073, -471, -149, -386, -326, -195, -265, -280, -217, -215, -229, -212])
('ECG', 1747494419397558930, [-195, -186, -174, -161, -142, -125, -123, -120, -113, -113, -123, -137, -154, -171, -183, -195, -215, -246, -277, -302, -316, -326, -333, -333, -333, -335, -333, -328, -321, -311, -304, -297, -292, -292, -292, -280, -275, -280, -280, -275, -275, -280, -280, -280, -280, -277, -275, -275, -270, -273, -270, -261, -258, -263, -265, -268, -268, -265, -258, -253, -253, -258, -261, -258, -256, -268, -273, -253, -229, -227, -227, -215, -222])
('ECG', 1747494419959268152, [-258, -275, -263, -261, -265, -263, -282, -340, -294, 94, 691, 986, 350, -771, -853, -219, -200, -386, -263, -219, -287, -256, -212, -224, -215, -198, -193, -178, -159, -157, -147, -130, -120, -113, -108, -111, -123, -132, -145, -161, -183, -200, -229, -261, -277, -292, -316, -328, -323, -326, -328, -321, -316, -314, -306, -299, -292, -290, -292, -290, -282, -285, -285, -275, -265, -270, -280, -280, -273, -268, -270, -275, -275])
('ECG', 1747494420520967200, [-268, -268, -270, -268, -268, -268, -265, -263, -263, -261, -253, -253, -253, -258, -263, -258, -241, -234, -234, -224, -219, -241, -263, -261, -258, -261, -256, -261, -306, -340, -142, 377, 874, 720, -306, -974, -478, -108, -333, -333, -200, -256, -275, -217, -217, -219, -190, -186, -188, -166, -145, -142, -130, -111, -106, -106, -108, -113, -123, -130, -140, -164, -186, -207, -236, -268, -290, -306, -316, -326, -331, -328, -321])
('ECG', 1747494421082686594, [-316, -311, -304, -302, -299, -292, -285, -285, -282, -273, -273, -275, -273, -270, -275, -277, -270, -277, -292, -285, -275, -290, -294, -285, -282, -282, -280, -275, -270, -268, -258, -253, -258, -263, -265, -270, -261, -244, -227, -217, -219, -224, -236, -256, -265, -258, -261, -268, -265, -287, -340, -258, 161, 742, 918, 123, -913, -775, -183, -253, -367, -224, -219, -277, -236, -215, -227, -198, -181, -186, -171, -149, -140])
('ECG', 1747494421644405988, [-130, -116, -103, -99, -106, -111, -113, -130, -152, -159, -161, -181, -212, -246, -275, -294, -302, -314, -333, -335, -314, -302, -309, -306, -292, -290, -290, -280, -270, -273, -282, -277, -270, -275, -275, -273, -275, -280, -287, -292, -290, -285, -282, -275, -277, -287, -285, -280, -282, -280, -280, -287, -282, -265, -270, -280, -265, -251, -253, -248, -232, -236, -265, -277, -273, -273, -270, -265, -287, -343, -326, 4, 618])
('ECG', 1747494422206094866, [1044, 534, -717, -1029, -333, -181, -386, -263, -193, -280, -258, -198, -200, -198, -181, -174, -164, -145, -128, -125, -125, -111, -96, -101, -111, -116, -128, -145, -159, -174, -190, -210, -248, -285, -299, -306, -321, -328, -335, -333, -321, -309, -309, -306, -297, -287, -285, -282, -277, -280, -280, -280, -277, -273, -273, -282, -282, -277, -280, -285, -285, -285, -287, -285, -280, -280, -282, -277, -275, -275, -275, -277, -280])
('ECG', 1747494422767819346, [-282, -285, -275, -253, -236, -227, -222, -222, -244, -268, -273, -261, -256, -256, -270, -311, -348, -166, 364, 923, 845, -210, -1027, -558, -106, -328, -345, -190, -241, -277, -212, -203, -217, -193, -171, -164, -154, -142, -130, -113, -103, -99, -91, -91, -101, -113, -123, -137, -157, -181, -207, -232, -256, -282, -299, -309, -319, -323, -321, -321, -316, -306, -302, -292, -285, -285, -277, -270, -273, -273, -263, -261, -263])
('ECG', 1747494423329533654, [-268, -270, -270, -265, -265, -270, -270, -268, -268, -273, -275, -273, -265, -263, -268, -268, -268, -268, -265, -258, -258, -258, -258, -261, -261, -261, -263, -263, -261, -253, -244, -232, -222, -222, -227, -239, -261, -270, -263, -253, -251, -268, -306, -345, -200, 277, 838, 891, -21, -930, -611, -103, -282, -364, -219, -239, -280, -222, -203, -215, -195, -181, -176, -154, -140, -140, -128, -111, -103, -96, -94, -103, -113])
('ECG', 1747494423891237790, [-125, -137, -152, -169, -193, -217, -246, -265, -280, -297, -299, -302, -311, -311, -299, -294, -294, -287, -282, -280, -273, -268, -265, -263, -268, -265, -265, -270, -265, -258, -263, -273, -270, -261, -268, -282, -282, -275, -270, -268, -273, -273, -273, -273, -268, -263, -263, -273, -275, -261, -253, -263, -270, -263, -261, -258, -251, -251, -261, -258, -248, -251, -258, -253, -246, -248, -253, -248, -239, -241, -248, -244, -234])
('ECG', 1747494424452941924, [-224, -217, -212, -207, -205, -227, -246, -239, -239, -248, -241, -241, -294, -338, -147, 364, 908, 872, -147, -981, -551, -106, -321, -355, -210, -248, -277, -224, -222, -232, -200, -186, -186, -166, -152, -152, -140, -123, -125, -123, -116, -118, -137, -152, -161, -178, -186, -195, -219, -244, -258, -275, -290, -299, -304, -309, -314, -309, -302, -297, -292, -287, -287, -282, -275, -273, -265, -263, -273, -277, -273, -273, -270])
('ECG', 1747494425014661318, [-263, -270, -285, -287, -275, -273, -282, -280, -270, -277, -287, -273, -270, -277, -275, -268, -270, -273, -265, -263, -263, -261, -258, -256, -253, -256, -258, -258, -258, -258, -248, -241, -248, -258, -258, -246, -232, -222, -222, -219, -215, -232, -253, -256, -253, -256, -258, -263, -311, -360, -152, 403, 945, 831, -253, -1029, -524, -113, -345, -340, -200, -263, -285, -215, -212, -227, -198, -181, -183, -169, -152, -145, -132])
('ECG', 1747494425576350196, [-120, -120, -113, -103, -113, -128, -137, -152, -171, -186, -207, -239, -261, -273, -290, -306, -314, -316, -321, -319, -314, -314, -306, -292, -290, -290, -277, -268, -270, -270, -265, -265, -258, -253, -261, -263, -256, -258, -270, -265, -258, -263, -263, -256, -253, -261, -263, -261, -258, -261, -258, -256, -256, -251, -248, -253, -251, -241, -244, -251, -251, -246, -248, -248, -244, -244, -244, -244, -246, -251, -256, -253, -241])
('ECG', 1747494426138069590, [-224, -217, -215, -207, -219, -246, -253, -246, -248, -251, -246, -265, -326, -282, 89, 676, 1015, 461, -664, -843, -232, -181, -381, -273, -217, -277, -241, -210, -229, -219, -193, -188, -176, -154, -145, -145, -137, -118, -101, -106, -116, -116, -125, -140, -154, -171, -186, -207, -241, -268, -285, -299, -306, -314, -316, -321, -321, -319, -314, -306, -292, -282, -287, -285, -270, -261, -258, -265, -275, -275, -268, -261, -261])
('ECG', 1747494426699788984, [-263, -265, -270, -268, -265, -270, -282, -285, -275, -268, -263, -261, -263, -270, -270, -265, -268, -270, -261, -258, -261, -256, -251, -256, -258, -256, -251, -248, -253, -263, -265, -251, -232, -219, -224, -229, -227, -232, -253, -268, -261, -256, -261, -270, -314, -345, -125, 415, 942, 809, -285, -1029, -512, -125, -360, -348, -205, -253, -280, -229, -232, -234, -203, -186, -190, -178, -152, -140, -132, -120, -116, -111, -113])
('ECG', 1747494427261477860, [-123, -132, -140, -152, -171, -193, -212, -229, -248, -277, -297, -299, -304, -311, -321, -321, -309, -302, -302, -294, -280, -275, -277, -275, -275, -273, -268, -265, -263, -263, -261, -261, -268, -277, -275, -265, -270, -280, -277, -275, -280, -277, -270, -275, -277, -268, -270, -273, -268, -268, -268, -265, -270, -275, -270, -270, -277, -265, -244, -229, -234, -236, -232, -246, -277, -285, -273, -265, -265, -282, -340, -355, -55])
('ECG', 1747494427823197254, [558, 1039, 633, -613, -1051, -367, -154, -393, -297, -195, -273, -265, -210, -217, -215, -190, -183, -176, -154, -140, -128, -116, -108, -103, -96, -96, -103, -118, -130, -145, -161, -186, -212, -241, -270, -297, -311, -319, -323, -331, -328, -326, -323, -314, -302, -297, -294, -287, -277, -270, -270, -265, -263, -268, -268, -265, -268, -268, -268, -268, -268, -263, -265, -270, -268, -265, -268, -265, -261, -256, -258, -263, -258])
('ECG', 1747494428384886130, [-256, -253, -256, -256, -251, -248, -248, -251, -261, -258, -232, -219, -219, -215, -205, -215, -244, -256, -251, -248, -251, -251, -270, -331, -299, 62, 659, 1010, 459, -681, -865, -239, -178, -386, -273, -212, -287, -256, -200, -222, -219, -183, -171, -171, -152, -137, -135, -125, -108, -103, -96, -84, -96, -113, -120, -135, -159, -183, -215, -239, -263, -282, -299, -314, -321, -314, -311, -316, -316, -302, -292, -290, -292])
('ECG', 1747494428946605524, [-287, -280, -277, -273, -268, -268, -270, -265, -253, -251, -256, -258, -258, -263, -268, -265, -261, -258, -261, -263, -261, -256, -251, -251, -256, -256, -258, -258, -251, -244, -256, -270, -258, -239, -227, -215, -215, -217, -210, -227, -258, -265, -258, -253, -248, -256, -302, -340, -154, 360, 903, 848, -183, -995, -536, -99, -326, -340, -190, -248, -294, -229, -207, -215, -195, -176, -171, -161, -149, -140, -120, -103, -103])
('ECG', 1747494429508294402, [-106, -101, -96, -106, -120, -130, -145, -164, -186, -219, -258, -282, -294, -302, -316, -326, -319, -314, -316, -311, -306, -299, -294, -285, -277, -273, -270, -268, -265, -265, -268, -270, -268, -261, -265, -273, -273, -273, -277, -277, -273, -273, -275, -277, -280, -273, -256, -256, -265, -263, -261, -263, -261, -265, -268, -253, -239, -232, -219, -215, -212, -212, -239, -263, -258, -248, -253, -256, -268, -323, -326, -19, 587])
('ECG', 1747494430070013796, [1051, 630, -613, -1034, -362, -157, -381, -285, -186, -256, -246, -200, -212, -212, -174, -159, -164, -154, -140, -128, -116, -99, -84, -84, -91, -103, -120, -132, -145, -166, -186, -203, -229, -258, -277, -297, -314, -326, -323, -314, -311, -311, -302, -299, -294, -287, -280, -273, -275, -270, -263, -261, -265, -265, -268, -270, -268, -265, -265, -273, -280, -273, -270, -275, -275, -273, -275, -275, -263, -263, -273, -273, -268])
('ECG', 1747494430631717932, [-270, -270, -270, -270, -261, -248, -239, -229, -222, -222, -241, -256, -258, -256, -253, -246, -246, -280, -345, -244, 224, 843, 1022, 130, -981, -754, -113, -253, -381, -210, -210, -268, -212, -188, -210, -193, -166, -157, -145, -128, -120, -113, -99, -87, -87, -87, -84, -99, -113, -123, -137, -161, -186, -212, -241, -270, -292, -302, -306, -316, -319, -309, -304, -306, -299, -290, -285, -280, -273, -268, -268, -268, -268])
('ECG', 1747494431193422066, [-261, -256, -263, -268, -261, -261, -265, -265, -263, -268, -268, -263, -265, -265, -263, -263, -263, -263, -265, -263, -258, -261, -265, -258, -251, -251, -253, -263, -261, -246, -232, -217, -215, -207, -210, -236, -256, -253, -248, -244, -241, -256, -302, -319, -94, 449, 964, 771, -328, -971, -425, -91, -345, -331, -190, -246, -265, -207, -203, -217, -190, -166, -161, -152, -140, -132, -123, -108, -99, -94, -94, -99, -111])
('ECG', 1747494431755141460, [-125, -135, -145, -171, -200, -224, -253, -277, -287, -297, -311, -316, -309, -304, -304, -299, -287, -280, -277, -270, -265, -265, -258, -248, -256, -263, -253, -251, -258, -261, -253, -256, -265, -268, -265, -265, -261, -261, -268, -268, -265, -265, -265, -261, -258, -261, -256, -253, -258, -265, -270, -265, -248, -234, -219, -219, -219, -224, -246, -258, -253, -256, -256, -253, -277, -335, -290, 79, 659, 971, 377, -732, -843])
('ECG', 1747494432316891374, [-222, -190, -381, -261, -207, -270, -239, -198, -207, -190, -166, -164, -159, -142, -130, -125, -118, -103, -91, -91, -99, -103, -111, -128, -142, -149, -169, -212, -246, -256, -270, -294, -309, -311, -314, -314, -314, -304, -297, -299, -297, -280, -270, -273, -270, -265, -270, -270, -261, -258, -263, -270, -275, -270, -265, -270, -275, -277, -280, -277, -270, -265, -270, -277, -275, -270, -268, -261, -263, -270, -265, -261, -268])
('ECG', 1747494432878544646, [-275, -261, -246, -239, -222, -215, -222, -229, -248, -258, -251, -251, -263, -261, -268, -321, -292, 58, 650, 1015, 442, -749, -928, -258, -183, -381, -246, -176, -253, -239, -190, -203, -205, -183, -166, -154, -140, -128, -120, -111, -96, -87, -96, -108, -108, -116, -137, -157, -161, -174, -205, -234, -248, -273, -294, -302, -309, -314, -306, -309, -314, -299, -282, -285, -282, -270, -265, -265, -258, -253, -261, -265, -261])
('ECG', 1747494433440238608, [-258, -261, -258, -265, -273, -270, -270, -275, -273, -265, -265, -268, -261, -261, -270, -263, -256, -261, -261, -261, -265, -265, -265, -265, -258, -241, -222, -212, -212, -222, -241, -263, -261, -251, -256, -258, -256, -287, -348, -244, 224, 836, 995, 94, -988, -754, -145, -268, -360, -198, -215, -273, -217, -200, -217, -190, -169, -171, -159, -132, -116, -113, -106, -89, -87, -99, -103, -111, -125, -142, -157, -171, -188])
('ECG', 1747494434001942744, [-210, -236, -261, -282, -299, -309, -309, -306, -306, -302, -292, -290, -282, -270, -265, -265, -263, -258, -258, -256, -256, -256, -256, -258, -261, -263, -263, -263, -265, -268, -265, -265, -268, -265, -261, -263, -263, -263, -265, -263, -258, -261, -261, -258, -253, -256, -261, -256, -246, -251, -261, -253, -234, -224, -217, -215, -212, -217, -239, -253, -244, -234, -236, -241, -268, -326, -256, 157, 749, 1010, 304, -807, -783])
('ECG', 1747494434563646878, [-154, -205, -379, -234, -203, -275, -234, -195, -219, -205, -166, -161, -161, -147, -132, -123, -113, -106, -101, -99, -106, -116, -128, -142, -157, -166, -186, -210, -234, -256, -277, -290, -297, -304, -304, -304, -302, -297, -287, -277, -275, -275, -273, -270, -261, -246, -251, -258, -258, -256, -256, -261, -261, -258, -261, -265, -265, -263, -265, -270, -265, -256, -263, -270, -268, -263, -258, -256, -263, -265, -256, -253, -258])
('ECG', 1747494435125340842, [-251, -246, -253, -256, -251, -246, -246, -244, -239, -241, -246, -241, -232, -222, -210, -205, -203, -207, -229, -246, -239, -236, -241, -244, -263, -323, -253, 157, 739, 983, 299, -771, -761, -166, -212, -374, -234, -200, -263, -229, -198, -210, -198, -174, -166, -161, -149, -132, -125, -116, -106, -111, -116, -108, -111, -130, -149, -161, -171, -188, -207, -224, -239, -263, -285, -292, -292, -294, -294, -292, -287, -285, -280])
