('ECG', 1747483284091747000, [13309, 13964, 15078, 15015, 15013, 15363, 15327, 15239, 15358, 15280, 15078, 15005, 14898, 14721, 14813, 15249, 15636, 15385, 14129, 13151, 13587, 13947, 13516, 13334, 13373, 13154, 12935, 12881, 12786, 12604, 12436, 12336, 12256, 12103, 11913, 11796, 11701, 11550, 11416, 11336, 11197, 10986, 10828, 10728, 10589, 10407, 10244, 10100, 9944, 9779, 9640, 9540, 9458, 9336, 9166, 9059, 8990, 8859, 8730, 8662, 8584, 8472, 8372, 8275, 8166, 8061, 7990, 7920, 7813, 7718, 7628, 7530, 7462])
('ECG', 1747483284653588466, [7380, 7275, 7202, 7127, 7027, 6942, 6878, 6805, 6715, 6652, 6611, 6516, 6418, 6380, 6324, 6224, 6151, 6100, 6022, 5944, 5905, 5866, 5796, 5730, 5696, 5662, 5577, 5472, 5414, 5384, 5353, 5304, 5216, 5095, 5024, 5236, 5749, 6165, 5854, 4696, 4063, 4613, 4890, 4574, 4567, 4676, 4559, 4491, 4521, 4484, 4421, 4396, 4372, 4331, 4304, 4299, 4289, 4255, 4221, 4202, 4180, 4146, 4100, 4051, 3995, 3937, 3876, 3812, 3752, 3703, 3659, 3606, 3562])
('ECG', 1747483285215429932, [3542, 3520, 3472, 3440, 3445, 3423, 3377, 3362, 3350, 3314, 3284, 3267, 3243, 3216, 3202, 3180, 3148, 3129, 3112, 3082, 3051, 3026, 3009, 2983, 2956, 2939, 2927, 2907, 2880, 2859, 2842, 2820, 2793, 2773, 2754, 2732, 2720, 2725, 2713, 2671, 2644, 2630, 2610, 2588, 2571, 2564, 2554, 2528, 2508, 2506, 2496, 2474, 2464, 2460, 2433, 2391, 2365, 2360, 2355, 2331, 2294, 2231, 2206, 2462, 2978, 3367, 3092, 2048, 1496, 2036, 2314, 2039, 2046])
('ECG', 1747483285777271398, [2168, 2099, 2075, 2129, 2116, 2087, 2095, 2102, 2099, 2102, 2090, 2082, 2104, 2126, 2112, 2085, 2078, 2065, 2034, 2000, 1970, 1939, 1912, 1885, 1851, 1810, 1786, 1768, 1756, 1751, 1737, 1720, 1710, 1698, 1688, 1688, 1691, 1683, 1671, 1671, 1671, 1657, 1642, 1637, 1630, 1615, 1601, 1593, 1588, 1579, 1562, 1552, 1547, 1540, 1535, 1530, 1515, 1503, 1496, 1486, 1467, 1457, 1469, 1479, 1459, 1442, 1440, 1430, 1413, 1408, 1406, 1391, 1372])
('ECG', 1747483286339112864, [1369, 1382, 1382, 1374, 1377, 1382, 1367, 1333, 1311, 1311, 1311, 1296, 1282, 1265, 1206, 1197, 1474, 1997, 2367, 1987, 875, 457, 1094, 1340, 1107, 1165, 1257, 1177, 1180, 1231, 1206, 1199, 1233, 1233, 1223, 1236, 1245, 1250, 1255, 1257, 1255, 1253, 1238, 1216, 1202, 1182, 1150, 1121, 1094, 1063, 1039, 1021, 1000, 975, 961, 951, 941, 941, 948, 953, 953, 953, 956, 953, 941, 934, 934, 929, 927, 924, 919, 910, 902])
('ECG', 1747483286900954330, [893, 885, 883, 878, 868, 861, 858, 858, 851, 846, 846, 841, 834, 832, 832, 829, 824, 820, 817, 815, 812, 810, 805, 793, 785, 795, 810, 810, 807, 815, 807, 783, 764, 761, 768, 771, 759, 732, 671, 703, 1060, 1615, 1893, 1313, 201, 65, 742, 817, 588, 700, 773, 695, 712, 759, 739, 739, 761, 766, 773, 785, 790, 798, 810, 817, 815, 810, 802, 788, 768, 747, 727, 708, 676])
('ECG', 1747483287462795798, [652, 630, 601, 581, 576, 564, 552, 559, 574, 576, 566, 562, 562, 566, 571, 576, 576, 566, 559, 557, 562, 564, 554, 547, 547, 547, 542, 537, 532, 525, 518, 523, 525, 520, 515, 520, 525, 515, 508, 508, 503, 496, 498, 503, 501, 496, 493, 493, 491, 479, 469, 472, 481, 484, 479, 486, 498, 489, 462, 445, 445, 447, 442, 428, 394, 355, 489, 929, 1411, 1423, 601, -228, 46])
('ECG', 1747483288024606746, [535, 386, 294, 437, 428, 374, 418, 437, 420, 425, 437, 442, 457, 491, 503, 489, 493, 513, 513, 498, 484, 464, 440, 425, 420, 406, 379, 350, 318, 296, 289, 284, 267, 260, 272, 274, 262, 262, 277, 289, 284, 284, 296, 289, 270, 274, 289, 270, 255, 279, 291, 279, 279, 282, 272, 277, 289, 274, 257, 255, 255, 255, 255, 253, 250, 248, 245, 253, 262, 267, 257, 245, 245])
('ECG', 1747483288586448212, [245, 245, 245, 253, 248, 236, 223, 231, 253, 265, 260, 267, 270, 255, 243, 245, 233, 211, 218, 236, 218, 160, 126, 299, 747, 1182, 1094, 197, -513, -111, 316, 153, 124, 236, 182, 145, 199, 223, 233, 245, 238, 238, 255, 267, 272, 282, 291, 296, 304, 299, 279, 262, 248, 221, 204, 211, 199, 153, 116, 109, 97, 82, 77, 65, 53, 60, 72, 77, 92, 107, 104, 85, 77])
('ECG', 1747483289148289678, [87, 82, 82, 102, 99, 80, 80, 85, 80, 65, 53, 55, 65, 70, 75, 72, 60, 48, 55, 63, 51, 36, 36, 38, 53, 77, 65, 34, 34, 53, 46, 31, 29, 46, 68, 75, 77, 68, 43, 14, 2, 12, 17, 17, 29, -4, -68, 68, 540, 1041, 983, 7, -805, -386, 90, -63, -51, 90, 26, -12, 46, 53, 38, 60, 65, 63, 77, 94, 109, 143, 165, 145, 136])
('ECG', 1747483289710100626, [145, 133, 109, 90, 72, 48, 24, -2, -24, -41, -60, -75, -80, -87, -92, -90, -87, -85, -72, -65, -63, -58, -55, -53, -51, -48, -51, -51, -48, -51, -55, -58, -60, -63, -63, -65, -63, -65, -72, -75, -75, -77, -77, -77, -77, -72, -72, -72, -70, -75, -77, -75, -80, -87, -72, -60, -65, -65, -53, -51, -72, -92, -77, -63, -72, -68, -70, -121, -165, -26, 413, 927, 1026])
('ECG', 1747483290271942092, [201, -805, -576, 60, -60, -204, -29, -19, -97, -55, -36, -77, -82, -43, -17, -4, 29, 63, 70, 65, 68, 72, 80, 90, 85, 63, 60, 48, 0, -34, -43, -77, -116, -138, -138, -138, -155, -148, -119, -124, -133, -119, -116, -114, -92, -102, -124, -114, -114, -121, -97, -92, -97, -92, -102, -109, -102, -114, -128, -116, -107, -114, -124, -111, -99, -114, -124, -119, -116, -109, -104, -109, -109])
('ECG', 1747483290833783560, [-111, -124, -128, -121, -128, -143, -128, -102, -111, -119, -77, -63, -109, -138, -133, -126, -131, -131, -126, -148, -201, -102, 335, 846, 900, 107, -785, -571, -21, -121, -245, -114, -99, -148, -121, -109, -94, -60, -60, -68, -41, -24, -24, -17, 0, 17, 24, 31, 31, 17, 0, -29, -60, -80, -94, -109, -133, -153, -170, -194, -209, -199, -204, -204, -175, -167, -177, -167, -165, -170, -167, -167, -165])
('ECG', 1747483291395625026, [-155, -141, -136, -148, -163, -163, -158, -160, -158, -158, -160, -160, -160, -163, -170, -170, -158, -153, -170, -172, -167, -170, -163, -158, -158, -158, -160, -153, -153, -170, -187, -189, -167, -126, -116, -138, -145, -138, -160, -189, -187, -177, -180, -172, -187, -260, -209, 163, 661, 858, 265, -739, -783, -160, -128, -306, -187, -145, -223, -199, -153, -160, -153, -133, -133, -124, -102, -85, -72, -75, -82, -55, -29])
('ECG', 1747483291957435974, [-46, -68, -77, -94, -126, -158, -175, -182, -204, -236, -245, -255, -282, -294, -279, -270, -270, -265, -257, -260, -257, -248, -253, -260, -245, -233, -238, -238, -236, -240, -250, -260, -265, -260, -248, -253, -260, -245, -238, -245, -250, -262, -277, -270, -250, -243, -248, -248, -253, -253, -250, -255, -267, -265, -257, -257, -245, -228, -231, -243, -233, -216, -231, -260, -265, -260, -260, -255, -250, -274, -343, -328, 2])
('ECG', 1747483292519277440, [549, 854, 347, -749, -1000, -362, -194, -364, -270, -214, -274, -250, -209, -216, -211, -194, -189, -180, -170, -163, -148, -126, -111, -104, -109, -124, -133, -136, -155, -197, -221, -226, -250, -284, -291, -309, -330, -338, -333, -328, -330, -330, -330, -323, -313, -309, -304, -299, -294, -282, -282, -294, -294, -289, -291, -291, -289, -284, -277, -289, -311, -309, -289, -296, -316, -294, -270, -291, -309, -296, -291, -296, -301])
('ECG', 1747483293081118906, [-291, -282, -291, -291, -284, -289, -296, -289, -279, -296, -311, -287, -255, -260, -272, -250, -240, -279, -306, -296, -284, -284, -289, -301, -347, -330, -17, 535, 871, 401, -681, -963, -335, -184, -416, -330, -238, -309, -301, -245, -257, -257, -216, -206, -216, -201, -180, -172, -155, -141, -138, -131, -116, -128, -158, -175, -187, -214, -245, -270, -287, -313, -330, -328, -340, -357, -355, -345, -343, -338, -321, -318, -326])
('ECG', 1747483293642929854, [-313, -304, -309, -306, -291, -287, -306, -309, -291, -289, -299, -296, -291, -289, -299, -301, -287, -291, -306, -299, -294, -304, -304, -294, -294, -299, -296, -287, -279, -287, -294, -291, -289, -294, -299, -296, -282, -267, -279, -294, -289, -284, -299, -301, -274, -255, -260, -255, -248, -270, -289, -291, -289, -289, -296, -296, -323, -372, -233, 231, 710, 691, -153, -953, -649, -170, -318, -386, -245, -277, -330, -277, -253])
('ECG', 1747483294204771322, [-255, -240, -231, -221, -197, -177, -175, -167, -155, -145, -133, -136, -148, -143, -145, -170, -201, -218, -240, -272, -294, -309, -323, -333, -338, -335, -338, -347, -345, -328, -311, -311, -321, -316, -296, -291, -301, -304, -301, -299, -296, -289, -291, -301, -296, -279, -284, -306, -309, -299, -304, -306, -296, -287, -289, -299, -301, -304, -309, -304, -289, -289, -304, -306, -291, -282, -284, -289, -294, -296, -294, -299, -301])
('ECG', 1747483294766612788, [-296, -296, -282, -262, -274, -299, -294, -289, -296, -299, -289, -260, -236, -257, -282, -287, -299, -306, -306, -316, -326, -362, -316, 26, 530, 749, 197, -773, -875, -294, -218, -406, -326, -260, -309, -294, -255, -260, -260, -243, -231, -223, -209, -187, -180, -167, -141, -141, -160, -165, -167, -175, -184, -197, -214, -248, -282, -294, -309, -335, -350, -350, -347, -350, -347, -340, -328, -335, -343, -321, -311, -326, -321])
('ECG', 1747483295328423736, [-306, -301, -306, -311, -306, -301, -306, -306, -301, -301, -309, -311, -309, -306, -309, -321, -326, -313, -301, -301, -306, -313, -326, -323, -313, -313, -313, -304, -294, -304, -313, -306, -313, -318, -304, -299, -309, -301, -291, -301, -304, -309, -316, -309, -301, -311, -311, -282, -270, -282, -284, -272, -291, -326, -313, -287, -294, -318, -313, -323, -379, -301, 102, 591, 681, -46, -924, -751, -209, -291, -423, -296, -277])
('ECG', 1747483295890265202, [-328, -289, -265, -284, -272, -248, -238, -231, -223, -201, -184, -180, -165, -155, -150, -153, -175, -201, -218, -236, -245, -255, -277, -313, -338, -345, -352, -357, -364, -379, -374, -360, -355, -345, -340, -345, -340, -326, -330, -335, -326, -328, -335, -323, -313, -326, -330, -330, -335, -330, -326, -338, -347, -347, -343, -323, -326, -350, -347, -328, -333, -345, -345, -330, -321, -338, -355, -350, -343, -335, -335, -340, -338])
('ECG', 1747483296452076150, [-323, -326, -347, -355, -343, -333, -328, -343, -347, -323, -311, -316, -318, -311, -318, -335, -345, -352, -350, -347, -362, -382, -401, -335, 21, 535, 705, 26, -968, -934, -330, -318, -457, -340, -313, -364, -326, -296, -321, -313, -287, -277, -267, -257, -243, -223, -221, -221, -211, -194, -187, -204, -231, -253, -279, -299, -311, -333, -364, -384, -396, -408, -418, -425, -420, -416, -425, -423, -403, -394, -394, -394, -384])
('ECG', 1747483297013917614, [-374, -377, -382, -379, -379, -384, -382, -377, -372, -374, -386, -394, -399, -399, -389, -396, -401, -389, -386, -386, -391, -406, -399, -384, -391, -391, -384, -384, -386, -391, -391, -389, -391, -396, -394, -379, -372, -384, -391, -377, -369, -372, -360, -343, -362, -394, -391, -377, -377, -386, -401, -442, -474, -262, 253, 705, 545, -459, -1180, -705, -262, -435, -450, -321, -357, -377, -330, -333, -345, -313, -291, -294, -289])
('ECG', 1747483297575728566, [-267, -238, -226, -223, -209, -197, -206, -214, -221, -243, -272, -289, -301, -326, -360, -389, -401, -403, -416, -435, -440, -435, -423, -411, -406, -406, -406, -401, -396, -386, -382, -382, -382, -377, -362, -360, -367, -374, -384, -386, -379, -379, -386, -377, -367, -372, -379, -379, -382, -386, -382, -374, -372, -374, -377, -374, -367, -369, -374, -367, -362, -367, -364, -364, -382, -384, -364, -357, -355, -340, -333, -335, -333])
('ECG', 1747483298137539514, [-343, -362, -372, -364, -362, -367, -391, -447, -384, 4, 547, 771, 158, -880, -946, -333, -313, -498, -360, -316, -408, -360, -279, -299, -326, -309, -294, -294, -282, -253, -226, -209, -197, -192, -197, -201, -209, -228, -257, -279, -287, -291, -313, -355, -391, -411, -428, -442, -445, -430, -413, -418, -428, -425, -413, -401, -406, -420, -416, -389, -369, -377, -386, -382, -382, -382, -377, -382, -384, -379, -384, -384, -369])
('ECG', 1747483298699380980, [-372, -382, -377, -377, -391, -391, -374, -374, -382, -379, -372, -382, -394, -379, -355, -347, -360, -369, -369, -367, -372, -369, -367, -369, -379, -382, -357, -333, -335, -343, -335, -323, -340, -374, -394, -384, -360, -345, -350, -386, -445, -343, 92, 605, 700, -75, -1012, -829, -262, -364, -498, -355, -340, -401, -369, -345, -350, -326, -309, -311, -304, -284, -253, -226, -223, -223, -211, -209, -221, -238, -253, -257, -265])
('ECG', 1747483299261191928, [-289, -326, -355, -379, -403, -428, -447, -445, -437, -442, -440, -433, -430, -425, -425, -423, -418, -413, -411, -403, -391, -389, -396, -399, -403, -408, -406, -399, -394, -403, -408, -386, -386, -418, -435, -418, -406, -406, -406, -403, -408, -416, -408, -401, -411, -416, -403, -403, -423, -433, -418, -406, -408, -403, -391, -408, -420, -403, -403, -423, -420, -413, -416, -403, -386, -389, -379, -374, -406, -435, -437, -433, -420])
('ECG', 1747483299823002876, [-403, -433, -506, -476, -143, 406, 761, 294, -863, -1185, -523, -350, -557, -455, -369, -423, -403, -374, -394, -384, -347, -347, -355, -335, -316, -301, -274, -257, -262, -260, -257, -265, -289, -318, -338, -347, -360, -394, -418, -440, -464, -486, -496, -496, -491, -489, -489, -476, -467, -469, -469, -469, -462, -435, -430, -450, -437, -418, -435, -447, -440, -440, -445, -445, -452, -455, -435, -423, -440, -455, -450, -452, -459])
('ECG', 1747483300384844342, [-442, -433, -447, -455, -442, -440, -440, -437, -445, -452, -445, -430, -428, -433, -437, -430, -433, -447, -452, -440, -420, -413, -418, -416, -408, -420, -452, -459, -428, -411, -435, -459, -496, -535, -340, 214, 737, 598, -479, -1284, -781, -279, -484, -525, -382, -418, -452, -399, -396, -401, -357, -333, -343, -338, -313, -301, -291, -277, -260, -245, -248, -253, -250, -270, -304, -323, -347, -386, -416, -442, -467, -476, -472])
('ECG', 1747483300946655292, [-476, -489, -484, -481, -484, -474, -467, -464, -462, -450, -435, -430, -430, -423, -416, -420, -430, -423, -411, -413, -428, -428, -423, -420, -428, -435, -435, -423, -416, -425, -433, -435, -440, -420, -399, -408, -420, -420, -423, -423, -408, -406, -423, -423, -408, -406, -403, -396, -396, -403, -403, -406, -416, -401, -372, -372, -389, -379, -357, -374, -408, -413, -389, -382, -403, -420, -457, -474, -211, 362, 802, 501, -579])
('ECG', 1747483301508466240, [-1119, -554, -262, -518, -493, -355, -413, -433, -369, -367, -386, -355, -318, -323, -321, -296, -274, -267, -260, -248, -238, -231, -233, -245, -248, -260, -299, -328, -355, -391, -418, -435, -455, -467, -450, -425, -440, -462, -455, -437, -433, -435, -435, -433, -433, -420, -403, -396, -396, -401, -399, -394, -396, -399, -408, -406, -386, -377, -391, -399, -401, -408, -408, -401, -401, -403, -401, -394, -386, -391, -406, -406, -394])
('ECG', 1747483302070307706, [-391, -394, -389, -386, -391, -394, -391, -382, -379, -389, -406, -408, -389, -360, -357, -374, -379, -379, -382, -382, -391, -399, -382, -357, -345, -355, -360, -345, -352, -394, -408, -372, -347, -374, -396, -423, -459, -296, 172, 639, 610, -236, -1026, -715, -260, -423, -498, -369, -382, -406, -355, -345, -352, -338, -333, -326, -309, -311, -309, -265, -221, -231, -253, -236, -223, -257, -284, -279, -274, -296, -330, -369, -406])
('ECG', 1747483302632118654, [-423, -433, -445, -440, -437, -445, -450, -445, -445, -442, -430, -423, -420, -408, -399, -408, -413, -406, -401, -396, -396, -403, -406, -401, -399, -403, -413, -408, -403, -406, -408, -403, -399, -399, -396, -408, -408, -389, -391, -416, -420, -394, -377, -396, -411, -391, -382, -396, -396, -391, -396, -401, -401, -399, -389, -382, -391, -389, -386, -396, -401, -384, -374, -382, -377, -355, -357, -389, -403, -403, -406, -403, -401])
('ECG', 1747483303193929602, [-420, -467, -430, -111, 401, 722, 274, -810, -1114, -501, -335, -498, -379, -326, -411, -386, -343, -357, -345, -321, -328, -323, -291, -270, -262, -248, -233, -233, -236, -238, -245, -267, -287, -294, -313, -338, -347, -364, -401, -428, -440, -447, -457, -464, -467, -462, -455, -447, -442, -435, -423, -418, -425, -423, -416, -411, -413, -408, -406, -411, -416, -416, -416, -420, -420, -413, -416, -425, -423, -420, -425, -425, -416])
('ECG', 1747483303755740550, [-411, -418, -423, -423, -416, -413, -416, -416, -406, -406, -408, -408, -408, -408, -406, -408, -403, -401, -413, -416, -399, -384, -382, -379, -369, -372, -394, -411, -411, -399, -394, -399, -420, -476, -472, -155, 413, 790, 347, -810, -1160, -484, -282, -520, -437, -340, -403, -391, -340, -355, -355, -323, -313, -306, -289, -272, -262, -245, -223, -216, -214, -214, -221, -233, -250, -272, -294, -321, -352, -382, -401, -416, -430])
('ECG', 1747483304317576932, [-442, -442, -442, -447, -445, -430, -420, -423, -420, -408, -403, -403, -399, -391, -391, -391, -386, -384, -386, -389, -389, -389, -389, -394, -394, -391, -394, -394, -391, -391, -394, -396, -394, -391, -386, -389, -389, -384, -384, -384, -382, -379, -382, -382, -379, -377, -377, -372, -374, -377, -372, -367, -369, -374, -379, -384, -377, -357, -350, -350, -343, -335, -352, -372, -377, -374, -369, -372, -382, -418, -452, -262, 240])
('ECG', 1747483304879372620, [715, 632, -282, -1043, -674, -240, -437, -493, -350, -377, -406, -347, -340, -355, -326, -306, -311, -296, -274, -265, -255, -236, -221, -214, -206, -211, -221, -231, -245, -267, -291, -318, -350, -379, -396, -411, -423, -428, -425, -425, -425, -420, -418, -413, -403, -399, -396, -389, -386, -384, -382, -382, -377, -372, -374, -379, -374, -369, -379, -382, -374, -374, -379, -379, -377, -379, -382, -382, -379, -374, -377, -379, -377])
('ECG', 1747483305441173396, [-372, -374, -374, -372, -372, -374, -374, -369, -364, -367, -372, -367, -362, -364, -367, -364, -364, -367, -367, -362, -369, -377, -374, -360, -350, -347, -343, -338, -343, -357, -374, -382, -374, -369, -377, -391, -433, -428, -143, 377, 729, 379, -647, -1046, -479, -267, -493, -435, -338, -401, -394, -335, -350, -357, -326, -309, -306, -294, -279, -262, -253, -248, -233, -223, -228, -236, -243, -257, -272, -294, -318, -350, -379])
('ECG', 1747483306002984344, [-401, -413, -428, -442, -450, -450, -447, -445, -437, -430, -428, -425, -416, -406, -408, -411, -406, -401, -403, -408, -401, -394, -399, -408, -408, -399, -406, -416, -411, -403, -411, -411, -403, -408, -413, -406, -399, -401, -403, -403, -403, -401, -399, -399, -396, -399, -401, -401, -394, -394, -399, -394, -389, -389, -389, -391, -401, -403, -391, -374, -372, -369, -357, -355, -382, -403, -401, -386, -391, -403, -413, -455, -481])
('ECG', 1747483306564795292, [-248, 289, 737, 501, -579, -1199, -630, -267, -496, -467, -338, -399, -413, -350, -347, -360, -333, -316, -313, -304, -287, -270, -260, -248, -231, -226, -231, -238, -250, -262, -279, -309, -338, -357, -382, -411, -428, -437, -445, -455, -459, -459, -452, -450, -445, -435, -425, -423, -416, -408, -408, -411, -406, -401, -401, -403, -403, -403, -408, -408, -399, -401, -408, -411, -406, -403, -406, -411, -408, -403, -406, -403, -396])
('ECG', 1747483307126636758, [-396, -401, -399, -396, -391, -396, -399, -386, -386, -394, -391, -386, -394, -396, -386, -377, -362, -360, -357, -345, -350, -374, -386, -382, -374, -374, -379, -411, -464, -367, 63, 596, 747, 4, -1014, -900, -284, -352, -506, -362, -340, -399, -355, -323, -340, -328, -301, -294, -289, -272, -255, -243, -231, -216, -206, -204, -199, -209, -226, -245, -267, -291, -316, -347, -377, -396, -411, -425, -433, -433, -433, -430, -428])
('ECG', 1747483307688447708, [-423, -418, -413, -406, -394, -391, -389, -382, -382, -382, -379, -379, -382, -382, -382, -377, -377, -382, -384, -382, -382, -384, -384, -384, -382, -382, -382, -379, -377, -379, -379, -377, -374, -377, -372, -372, -372, -377, -384, -384, -377, -372, -374, -372, -355, -345, -360, -367, -367, -379, -382, -360, -345, -352, -347, -333, -345, -367, -372, -369, -367, -367, -369, -394, -447, -374, 24, 547, 720, 82, -893, -888, -299])
('ECG', 1747483308250258656, [-313, -496, -372, -330, -403, -372, -328, -345, -338, -304, -301, -304, -284, -270, -255, -228, -209, -211, -214, -211, -216, -228, -245, -265, -284, -306, -338, -367, -389, -406, -420, -430, -428, -420, -420, -423, -418, -411, -403, -394, -391, -394, -391, -386, -379, -379, -382, -382, -379, -384, -382, -379, -382, -384, -382, -384, -384, -384, -389, -389, -386, -389, -389, -386, -391, -391, -382, -379, -384, -382, -379, -382, -386])
('ECG', 1747483308812069604, [-386, -382, -374, -377, -382, -382, -382, -384, -382, -379, -374, -372, -377, -379, -374, -377, -377, -372, -379, -391, -379, -357, -352, -360, -352, -350, -364, -384, -386, -377, -377, -384, -391, -430, -457, -248, 250, 691, 520, -462, -1107, -627, -262, -469, -469, -340, -386, -408, -357, -352, -355, -333, -321, -316, -304, -294, -279, -260, -245, -240, -233, -223, -238, -255, -265, -277, -306, -338, -355, -369, -396, -416, -428])
('ECG', 1747483309373880552, [-440, -447, -447, -445, -447, -452, -447, -430, -420, -418, -413, -408, -408, -411, -406, -401, -406, -411, -408, -411, -413, -408, -408, -411, -416, -413, -411, -411, -416, -416, -411, -411, -418, -413, -411, -418, -416, -411, -416, -413, -406, -403, -403, -411, -416, -408, -401, -406, -403, -403, -406, -403, -401, -403, -403, -403, -396, -384, -379, -377, -367, -367, -386, -408, -413, -406, -399, -403, -435, -496, -411, 24, 586])
('ECG', 1747483309935691500, [759, -2, -1082, -987, -338, -379, -530, -386, -362, -430, -389, -345, -355, -347, -326, -321, -311, -296, -282, -267, -250, -238, -233, -228, -231, -245, -265, -279, -299, -321, -347, -374, -399, -418, -435, -442, -442, -452, -457, -452, -447, -445, -435, -420, -413, -416, -411, -401, -396, -396, -394, -394, -394, -391, -386, -386, -389, -391, -391, -391, -391, -391, -394, -391, -391, -391, -389, -389, -389, -389, -386, -384, -382])
('ECG', 1747483310497502448, [-386, -386, -379, -382, -384, -374, -369, -377, -377, -372, -369, -372, -372, -367, -367, -374, -372, -372, -377, -372, -355, -345, -347, -340, -333, -350, -372, -379, -369, -362, -367, -382, -433, -442, -167, 384, 790, 508, -520, -1051, -520, -236, -479, -459, -330, -382, -399, -340, -338, -343, -321, -306, -299, -282, -270, -260, -240, -228, -218, -206, -204, -211, -223, -238, -255, -274, -296, -326, -357, -384, -406, -413, -420])
('ECG', 1747483311059313398, [-428, -433, -430, -425, -423, -418, -411, -401, -401, -399, -389, -386, -386, -384, -382, -382, -379, -377, -377, -377, -377, -379, -379, -379, -384, -379, -382, -384, -374, -374, -379, -377, -377, -379, -374, -372, -377, -377, -374, -372, -369, -369, -367, -367, -369, -367, -362, -362, -364, -362, -360, -362, -362, -360, -357, -364, -367, -357, -352, -355, -355, -360, -364, -362, -360, -364, -364, -350, -338, -338, -333, -326, -335])
('ECG', 1747483311621124346, [-357, -374, -372, -360, -357, -367, -401, -447, -299, 160, 642, 661, -158, -1009, -742, -248, -396, -486, -347, -364, -403, -340, -330, -357, -330, -311, -311, -291, -274, -270, -253, -236, -228, -223, -216, -214, -228, -250, -265, -282, -309, -330, -347, -372, -396, -411, -423, -428, -433, -435, -430, -423, -420, -425, -416, -403, -399, -399, -394, -386, -386, -394, -391, -384, -394, -396, -389, -386, -389, -391, -389, -389, -394])
('ECG', 1747483312182904776, [-394, -396, -394, -394, -396, -394, -391, -389, -386, -382, -377, -382, -386, -379, -377, -386, -384, -374, -379, -377, -374, -377, -374, -372, -369, -372, -377, -377, -372, -372, -374, -372, -372, -369, -357, -345, -347, -350, -345, -350, -372, -384, -379, -372, -369, -374, -418, -467, -306, 184, 691, 666, -272, -1150, -785, -262, -418, -479, -338, -360, -401, -350, -333, -340, -321, -304, -301, -289, -272, -265, -248, -228, -221])
('ECG', 1747483312744715724, [-221, -218, -221, -233, -255, -272, -284, -309, -343, -369, -386, -408, -423, -428, -433, -440, -442, -437, -433, -430, -423, -413, -406, -403, -396, -391, -389, -389, -386, -384, -379, -382, -384, -379, -377, -386, -391, -391, -394, -389, -374, -382, -391, -379, -367, -364, -374, -382, -374, -369, -377, -379, -374, -369, -372, -372, -369, -367, -367, -369, -364, -360, -357, -360, -360, -357, -357, -360, -367, -374, -372, -352, -338])
('ECG', 1747483313306526672, [-333, -313, -299, -328, -357, -364, -357, -352, -355, -372, -418, -433, -182, 347, 766, 525, -479, -1041, -528, -226, -462, -445, -318, -374, -389, -328, -321, -330, -309, -289, -272, -262, -255, -243, -226, -211, -201, -192, -189, -194, -204, -218, -236, -260, -289, -321, -357, -379, -394, -401, -406, -416, -428, -418, -413, -418, -416, -406, -399, -399, -394, -386, -386, -384, -374, -372, -374, -379, -379, -374, -369, -367, -364])
('ECG', 1747483313868337620, [-367, -372, -374, -377, -374, -369, -377, -377, -364, -369, -377, -364, -357, -362, -364, -364, -364, -360, -360, -362, -360, -355, -357, -357, -355, -355, -360, -362, -362, -360, -350, -343, -345, -355, -357, -350, -350, -355, -352, -347, -347, -347, -347, -350, -350, -352, -355, -352, -347, -340, -333, -326, -318, -323, -345, -364, -360, -352, -347, -347, -372, -425, -418, -138, 384, 759, 447, -574, -1034, -489, -245, -472, -433])
('ECG', 1747483314430118052, [-323, -379, -391, -343, -340, -338, -311, -301, -296, -277, -262, -250, -236, -223, -216, -214, -214, -214, -226, -245, -260, -277, -304, -328, -347, -369, -396, -411, -418, -425, -433, -430, -428, -425, -420, -411, -403, -403, -399, -394, -391, -389, -386, -389, -386, -379, -379, -382, -379, -379, -384, -382, -382, -386, -391, -389, -391, -394, -391, -386, -386, -389, -394, -389, -382, -384, -384, -382, -384, -391, -386, -377, -379])
('ECG', 1747483314991929000, [-386, -386, -377, -374, -379, -379, -374, -377, -382, -372, -364, -374, -382, -379, -377, -377, -379, -372, -357, -357, -360, -347, -340, -362, -386, -394, -384, -379, -379, -391, -440, -469, -236, 309, 768, 559, -515, -1180, -639, -260, -481, -462, -323, -384, -403, -340, -338, -352, -323, -306, -304, -289, -270, -253, -238, -226, -218, -214, -209, -214, -233, -248, -265, -289, -318, -338, -362, -394, -411, -418, -430, -437, -437])
('ECG', 1747483315553709430, [-437, -440, -435, -425, -420, -420, -413, -403, -394, -396, -391, -379, -377, -382, -382, -377, -377, -374, -369, -369, -374, -377, -379, -377, -377, -379, -374, -372, -379, -379, -372, -372, -377, -372, -360, -360, -369, -364, -360, -360, -360, -360, -360, -360, -357, -355, -352, -355, -352, -345, -347, -355, -352, -347, -350, -352, -352, -350, -347, -347, -352, -352, -352, -360, -362, -345, -330, -330, -328, -318, -323, -347, -367])
('ECG', 1747483316115520378, [-362, -350, -347, -355, -379, -440, -362, 65, 625, 822, 155, -868, -873, -291, -333, -510, -377, -335, -399, -362, -326, -338, -328, -304, -299, -287, -262, -253, -243, -223, -209, -199, -192, -192, -199, -209, -221, -240, -265, -291, -318, -350, -377, -389, -401, -416, -418, -418, -416, -413, -411, -408, -401, -396, -391, -384, -382, -384, -377, -372, -374, -372, -369, -364, -362, -364, -364, -352, -355, -367, -369, -367, -367])
('ECG', 1747483316677331326, [-369, -372, -369, -369, -369, -367, -362, -364, -367, -362, -355, -362, -362, -357, -352, -355, -357, -362, -352, -343, -347, -355, -360, -357, -350, -352, -357, -355, -350, -347, -347, -347, -350, -350, -347, -347, -345, -347, -352, -357, -357, -357, -357, -347, -328, -328, -335, -323, -313, -333, -360, -360, -357, -360, -362, -374, -423, -425, -155, 367, 761, 481, -537, -1046, -518, -248, -469, -435, -323, -384, -396, -343, -338])
('ECG', 1747483317239111756, [-335, -306, -301, -301, -284, -272, -253, -233, -226, -223, -209, -194, -204, -226, -240, -250, -270, -299, -326, -347, -372, -396, -403, -408, -423, -423, -418, -423, -425, -418, -413, -408, -401, -399, -391, -384, -382, -379, -374, -379, -382, -379, -377, -377, -379, -384, -384, -382, -384, -384, -382, -382, -384, -382, -384, -389, -386, -379, -382, -391, -386, -374, -374, -379, -377, -374, -377, -382, -384, -379, -374, -374, -374])
('ECG', 1747483317800922706, [-374, -374, -379, -379, -369, -367, -374, -369, -364, -369, -372, -372, -369, -352, -343, -352, -345, -335, -350, -369, -377, -379, -374, -367, -372, -403, -455, -379, 24, 571, 788, 111, -968, -978, -340, -335, -498, -369, -333, -391, -355, -323, -335, -323, -301, -291, -279, -262, -253, -240, -226, -211, -199, -194, -189, -199, -216, -231, -245, -274, -306, -335, -362, -386, -406, -420, -423, -425, -433, -433, -423, -423, -416])
('ECG', 1747483318362733654, [-396, -374, -374, -384, -377, -369, -372, -374, -369, -364, -362, -364, -364, -362, -364, -367, -364, -367, -372, -374, -369, -369, -374, -374, -372, -372, -372, -367, -364, -367, -369, -369, -364, -362, -364, -362, -360, -362, -362, -357, -357, -357, -360, -357, -355, -355, -355, -355, -352, -355, -355, -350, -352, -355, -355, -352, -350, -352, -357, -360, -364, -355, -330, -326, -333, -323, -321, -340, -357, -357, -355, -352, -355])
('ECG', 1747483318924514084, [-374, -423, -420, -136, 401, 793, 498, -518, -1009, -491, -238, -474, -447, -328, -379, -389, -338, -333, -338, -316, -301, -294, -279, -265, -255, -240, -221, -206, -199, -194, -197, -206, -218, -236, -257, -284, -309, -335, -364, -386, -403, -416, -420, -420, -418, -411, -411, -411, -406, -399, -391, -389, -386, -382, -384, -379, -367, -369, -374, -367, -362, -364, -364, -362, -364, -364, -364, -367, -369, -374, -374, -369, -364])
('ECG', 1747483319486314858, [-367, -369, -367, -362, -364, -369, -367, -355, -355, -360, -362, -364, -364, -360, -355, -357, -360, -360, -355, -352, -357, -357, -350, -350, -357, -357, -352, -352, -357, -357, -352, -350, -355, -357, -352, -355, -367, -364, -345, -330, -333, -333, -328, -338, -362, -374, -369, -360, -360, -364, -401, -447, -296, 170, 664, 681, -165, -1041, -768, -262, -401, -484, -347, -364, -406, -350, -330, -347, -328, -309, -306, -289, -272])
('ECG', 1747483320048105462, [-265, -255, -233, -216, -209, -199, -189, -204, -233, -257, -272, -282, -296, -328, -362, -394, -411, -416, -423, -430, -425, -428, -435, -428, -411, -406, -403, -396, -394, -389, -382, -386, -386, -386, -389, -384, -377, -379, -382, -379, -382, -386, -377, -372, -377, -374, -377, -374, -369, -367, -367, -367, -372, -374, -369, -369, -367, -367, -369, -369, -367, -369, -377, -374, -364, -364, -367, -369, -372, -374, -379, -386, -382])
('ECG', 1747483320609885892, [-372, -374, -379, -372, -360, -352, -343, -335, -340, -357, -369, -372, -364, -362, -367, -384, -437, -445, -155, 420, 846, 469, -698, -1170, -506, -228, -479, -420, -304, -369, -374, -323, -321, -316, -284, -272, -274, -255, -238, -228, -211, -189, -182, -182, -180, -180, -194, -211, -228, -253, -287, -323, -350, -372, -386, -403, -433, -447, -437, -423, -425, -425, -416, -403, -389, -379, -386, -394, -389, -374, -367, -367, -367])
('ECG', 1747483321171696842, [-367, -369, -369, -364, -364, -367, -364, -367, -377, -374, -364, -367, -374, -374, -369, -369, -372, -367, -369, -379, -372, -360, -362, -355, -345, -355, -360, -350, -345, -347, -347, -347, -347, -345, -340, -340, -343, -343, -343, -345, -343, -340, -350, -362, -350, -326, -323, -328, -316, -313, -335, -355, -352, -350, -350, -350, -367, -420, -399, -75, 474, 820, 399, -671, -1014, -416, -243, -484, -418, -321, -389, -377, -323])
('ECG', 1747483321733507790, [-330, -335, -316, -304, -294, -274, -260, -255, -231, -206, -201, -187, -158, -155, -170, -182, -189, -209, -238, -262, -291, -338, -374, -377, -382, -406, -413, -408, -406, -401, -396, -396, -389, -384, -382, -382, -377, -372, -377, -377, -374, -372, -369, -367, -367, -364, -362, -364, -374, -379, -364, -362, -384, -396, -389, -384, -391, -401, -403, -406, -411, -416, -413, -413, -416, -420, -425, -433, -437, -433, -428, -428, -425])
('ECG', 1747483322295288220, [-418, -411, -406, -411, -413, -408, -408, -416, -399, -384, -391, -386, -360, -364, -401, -408, -394, -389, -391, -389, -399, -442, -455, -201, 357, 807, 481, -686, -1250, -630, -299, -501, -440, -330, -401, -406, -345, -345, -347, -316, -299, -296, -284, -267, -253, -238, -221, -206, -197, -192, -189, -201, -226, -253, -272, -296, -330, -367, -396, -420, -440, -457, -464, -464, -467, -467, -459, -452, -445, -433, -428, -428, -425])
('ECG', 1747483322857099168, [-416, -401, -399, -403, -396, -391, -391, -389, -391, -394, -389, -391, -396, -391, -394, -399, -394, -389, -391, -391, -391, -389, -389, -391, -389, -382, -382, -384, -379, -374, -377, -374, -372, -369, -372, -372, -367, -364, -372, -377, -374, -369, -352, -345, -343, -330, -333, -355, -369, -367, -364, -364, -360, -377, -430, -437, -165, 399, 854, 562, -598, -1197, -569, -218, -464, -430, -299, -362, -374, -316, -313, -316, -289])
('ECG', 1747483323418879598, [-272, -272, -257, -236, -216, -199, -182, -182, -180, -167, -163, -167, -189, -216, -223, -238, -291, -345, -372, -384, -399, -411, -418, -420, -413, -408, -413, -408, -396, -396, -391, -377, -372, -372, -364, -367, -372, -367, -362, -364, -364, -360, -355, -360, -360, -355, -362, -377, -379, -374, -367, -364, -360, -362, -369, -367, -357, -362, -369, -362, -360, -367, -364, -350, -347, -347, -345, -350, -355, -350, -347, -345, -343])
('ECG', 1747483323980690546, [-340, -343, -347, -357, -360, -352, -343, -328, -321, -321, -313, -321, -343, -355, -350, -340, -345, -360, -391, -435, -301, 158, 686, 776, -17, -966, -793, -250, -364, -491, -347, -333, -389, -350, -316, -323, -316, -296, -287, -272, -257, -245, -228, -211, -199, -199, -189, -170, -180, -201, -201, -214, -245, -279, -309, -333, -362, -389, -394, -391, -408, -425, -416, -399, -396, -396, -384, -377, -382, -379, -364, -360, -367])
('ECG', 1747483324542470978, [-369, -360, -362, -367, -357, -340, -340, -355, -369, -367, -355, -355, -357, -350, -347, -350, -355, -364, -372, -360, -350, -355, -352, -347, -347, -347, -347, -350, -345, -350, -355, -345, -343, -345, -340, -338, -338, -333, -340, -355, -347, -338, -340, -338, -333, -333, -335, -338, -335, -330, -330, -323, -309, -311, -323, -338, -352, -347, -335, -345, -364, -394, -433, -294, 167, 671, 708, -114, -995, -744, -240, -394, -496])
('ECG', 1747483325104261580, [-345, -355, -401, -345, -318, -338, -323, -304, -299, -282, -262, -253, -236, -218, -204, -194, -194, -194, -194, -204, -218, -236, -262, -289, -316, -350, -382, -394, -406, -420, -423, -425, -425, -420, -411, -411, -411, -401, -391, -394, -396, -379, -372, -382, -384, -374, -377, -382, -377, -379, -386, -382, -379, -379, -389, -394, -384, -377, -386, -391, -386, -384, -384, -382, -374, -379, -386, -384, -372, -367, -377, -379, -372])
('ECG', 1747483325666062356, [-372, -372, -362, -364, -374, -377, -372, -364, -364, -364, -364, -362, -364, -372, -377, -374, -364, -355, -355, -352, -340, -343, -367, -382, -386, -384, -374, -372, -389, -430, -455, -240, 301, 800, 625, -472, -1209, -676, -250, -464, -464, -326, -377, -394, -328, -328, -347, -316, -294, -291, -277, -260, -250, -238, -221, -206, -197, -192, -192, -206, -228, -240, -257, -291, -323, -350, -382, -408, -420, -430, -440, -445, -445])
('ECG', 1747483326227842786, [-440, -433, -435, -433, -423, -413, -403, -396, -389, -386, -389, -386, -379, -379, -382, -379, -379, -384, -384, -379, -379, -382, -382, -384, -386, -384, -377, -372, -374, -374, -372, -372, -369, -367, -372, -377, -372, -357, -338, -338, -352, -355, -350, -350, -352, -350, -347, -352, -357, -360, -347, -330, -328, -333, -321, -316, -335, -357, -360, -352, -350, -347, -357, -406, -433, -180, 386, 849, 608, -474, -1112, -562, -204])
('ECG', 1747483326789653734, [-450, -445, -304, -357, -377, -316, -309, -321, -296, -277, -272, -260, -240, -223, -214, -199, -182, -170, -163, -160, -172, -187, -204, -226, -248, -270, -301, -360, -408, -399, -386, -420, -428, -396, -401, -416, -389, -369, -391, -399, -374, -364, -367, -360, -352, -352, -355, -355, -352, -355, -357, -355, -355, -355, -352, -360, -364, -367, -367, -364, -360, -355, -352, -357, -367, -367, -364, -362, -357, -352, -352, -352, -343])
('ECG', 1747483327351434164, [-343, -355, -352, -340, -345, -357, -350, -338, -343, -343, -313, -304, -350, -377, -345, -328, -338, -333, -330, -333, -333, -338, -335, -311, -289, -289, -296, -306, -321, -328, -330, -340, -350, -347, -340, -364, -418, -309, 136, 671, 807, 92, -888, -815, -253, -330, -493, -357, -323, -382, -347, -313, -316, -301, -289, -287, -274, -257, -245, -228, -211, -201, -187, -170, -175, -199, -206, -209, -228, -250, -265, -291, -328])
('ECG', 1747483327913214596, [-352, -367, -389, -413, -411, -401, -406, -399, -386, -389, -382, -369, -364, -372, -369, -360, -355, -360, -357, -355, -360, -362, -357, -360, -364, -364, -367, -369, -367, -374, -372, -362, -362, -367, -364, -364, -372, -374, -372, -367, -369, -377, -372, -362, -367, -372, -367, -362, -362, -364, -364, -364, -362, -357, -360, -364, -362, -355, -355, -360, -362, -360, -362, -369, -367, -362, -355, -347, -345, -335, -323, -333, -362])
('ECG', 1747483328474995026, [-377, -367, -357, -362, -367, -391, -442, -352, 75, 622, 781, 29, -1009, -917, -296, -345, -496, -357, -335, -396, -352, -321, -340, -330, -301, -291, -279, -265, -257, -248, -231, -216, -206, -201, -197, -204, -216, -233, -260, -282, -304, -330, -369, -399, -408, -418, -435, -442, -442, -442, -437, -428, -428, -425, -411, -403, -403, -401, -396, -396, -396, -396, -399, -396, -391, -394, -394, -389, -389, -394, -391, -386, -394])
('ECG', 1747483329036775456, [-399, -396, -389, -386, -386, -386, -389, -391, -386, -382, -379, -382, -386, -382, -372, -372, -377, -374, -369, -372, -372, -367, -367, -369, -369, -362, -362, -369, -369, -352, -340, -345, -340, -326, -333, -360, -372, -364, -355, -357, -362, -382, -437, -389, -2, 569, 837, 214, -919, -1029, -355, -289, -486, -364, -311, -382, -345, -294, -313, -309, -277, -270, -267, -248, -233, -223, -211, -194, -180, -172, -177, -182, -192])
('ECG', 1747483329598555886, [-209, -231, -253, -279, -313, -345, -369, -386, -406, -416, -416, -413, -416, -411, -408, -403, -391, -386, -382, -374, -372, -372, -369, -367, -369, -367, -364, -364, -364, -367, -367, -367, -372, -372, -369, -369, -369, -367, -364, -367, -372, -369, -364, -364, -364, -360, -360, -360, -357, -350, -347, -350, -355, -350, -347, -345, -347, -347, -345, -347, -347, -343, -343, -350, -347, -347, -355, -345, -326, -321, -326, -316, -313])
('ECG', 1747483330160336316, [-333, -352, -355, -345, -343, -347, -367, -416, -389, -63, 493, 834, 399, -669, -1000, -408, -245, -479, -406, -309, -372, -367, -313, -316, -316, -291, -282, -274, -260, -248, -236, -216, -204, -192, -182, -172, -177, -189, -201, -216, -243, -272, -296, -323, -355, -377, -391, -403, -408, -413, -416, -411, -403, -399, -389, -382, -382, -382, -374, -369, -369, -369, -364, -364, -367, -364, -357, -360, -367, -364, -360, -360, -362])
('ECG', 1747483330722116746, [-362, -360, -360, -364, -360, -350, -355, -362, -360, -357, -355, -355, -352, -352, -352, -355, -352, -345, -347, -355, -350, -347, -347, -345, -345, -347, -347, -345, -345, -345, -343, -345, -352, -357, -355, -333, -321, -323, -318, -309, -318, -343, -357, -352, -345, -350, -355, -379, -433, -330, 114, 659, 790, 31, -983, -871, -267, -335, -486, -347, -330, -386, -338, -311, -330, -313, -289, -284, -272, -255, -245, -231, -216])
('ECG', 1747483331283897178, [-206, -199, -187, -182, -192, -209, -218, -238, -267, -291, -316, -352, -377, -389, -403, -423, -425, -425, -425, -420, -416, -406, -396, -401, -396, -384, -379, -377, -372, -377, -374, -372, -377, -377, -372, -379, -379, -377, -384, -386, -379, -374, -377, -384, -386, -382, -377, -379, -382, -379, -379, -377, -369, -367, -374, -374, -364, -364, -369, -367, -367, -374, -377, -369, -364, -367, -374, -377, -372, -357, -347, -350, -345])
('ECG', 1747483331845677608, [-338, -352, -372, -379, -374, -372, -372, -377, -408, -462, -343, 133, 700, 768, -143, -1150, -883, -279, -389, -474, -321, -335, -384, -330, -313, -328, -301, -279, -282, -270, -248, -238, -226, -204, -189, -182, -180, -182, -189, -206, -228, -245, -270, -299, -328, -355, -379, -396, -408, -418, -423, -420, -418, -418, -408, -401, -396, -386, -377, -377, -379, -374, -367, -364, -367, -364, -364, -367, -369, -362, -364, -369, -372])
('ECG', 1747483332407458038, [-369, -369, -372, -367, -364, -369, -372, -367, -360, -360, -367, -364, -355, -352, -360, -360, -355, -352, -352, -350, -345, -345, -352, -347, -343, -343, -347, -355, -362, -355, -335, -326, -328, -321, -311, -323, -350, -357, -345, -340, -343, -355, -399, -428, -209, 326, 802, 666, -321, -1063, -620, -199, -423, -462, -313, -347, -379, -323, -311, -321, -299, -279, -274, -262, -248, -236, -221, -201, -187, -180, -170, -170, -184])
('ECG', 1747483332969268986, [-194, -204, -231, -262, -284, -309, -347, -374, -389, -394, -401, -411, -411, -401, -399, -399, -391, -382, -377, -372, -367, -362, -362, -362, -360, -355, -355, -352, -352, -352, -355, -355, -355, -355, -357, -357, -355, -352, -355, -357, -355, -352, -352, -350, -347, -347, -352, -350, -343, -343, -347, -345, -343, -343, -340, -338, -335, -330, -328, -330, -330, -328, -333, -335, -340, -343, -333, -313, -313, -311, -291, -294, -321])
('ECG', 1747483333531049416, [-335, -335, -330, -328, -333, -350, -391, -372, -60, 486, 827, 406, -647, -980, -394, -226, -457, -384, -284, -355, -352, -291, -296, -304, -279, -262, -257, -243, -228, -218, -201, -192, -180, -165, -163, -170, -177, -192, -209, -228, -255, -284, -313, -345, -367, -382, -394, -399, -399, -394, -391, -391, -389, -379, -372, -372, -367, -360, -360, -360, -357, -360, -355, -352, -352, -352, -355, -355, -355, -357, -362, -364, -362])
('ECG', 1747483334092799330, [-362, -367, -367, -362, -360, -360, -362, -357, -352, -360, -364, -350, -343, -355, -360, -352, -345, -343, -345, -345, -343, -343, -340, -340, -343, -343, -345, -347, -355, -350, -330, -318, -321, -316, -304, -313, -345, -360, -350, -343, -343, -347, -382, -433, -301, 172, 703, 732, -172, -1104, -802, -240, -374, -457, -306, -313, -369, -323, -291, -301, -294, -274, -265, -253, -240, -226, -209, -199, -187, -175, -172, -180, -182])
('ECG', 1747483334654610278, [-194, -218, -240, -257, -277, -304, -343, -372, -386, -396, -406, -408, -416, -423, -416, -401, -394, -391, -386, -382, -379, -374, -369, -372, -369, -364, -367, -369, -362, -362, -367, -369, -369, -374, -372, -369, -369, -369, -369, -369, -367, -367, -367, -362, -364, -364, -362, -357, -357, -357, -357, -350, -350, -350, -347, -345, -347, -345, -343, -340, -338, -343, -345, -343, -338, -326, -316, -316, -311, -299, -309, -335, -343])
('ECG', 1747483335216360190, [-335, -333, -333, -335, -364, -420, -323, 121, 683, 815, -4, -1034, -854, -236, -321, -450, -306, -296, -355, -311, -279, -291, -277, -255, -250, -238, -221, -211, -199, -182, -170, -163, -155, -153, -163, -180, -194, -211, -236, -265, -294, -318, -345, -369, -379, -384, -391, -396, -391, -389, -386, -379, -374, -367, -355, -352, -350, -347, -347, -347, -345, -345, -347, -347, -345, -347, -350, -350, -347, -347, -352, -352, -350])
('ECG', 1747483335778171138, [-352, -357, -355, -350, -347, -350, -350, -347, -347, -350, -343, -338, -345, -343, -330, -328, -333, -333, -330, -330, -333, -330, -328, -326, -326, -328, -323, -323, -326, -323, -321, -328, -330, -328, -335, -333, -321, -309, -301, -294, -291, -304, -326, -333, -323, -316, -321, -326, -355, -408, -311, 126, 681, 839, 114, -893, -820, -240, -309, -474, -338, -304, -362, -328, -296, -306, -294, -272, -265, -255, -240, -228, -216])
('ECG', 1747483336339921050, [-197, -184, -177, -170, -163, -172, -184, -194, -211, -238, -267, -296, -321, -333, -343, -362, -379, -386, -389, -386, -386, -384, -379, -374, -369, -360, -350, -347, -352, -350, -345, -343, -343, -345, -347, -345, -340, -340, -347, -345, -345, -350, -350, -343, -345, -352, -355, -352, -355, -355, -343, -328, -330, -340, -338, -330, -338, -338, -330, -330, -335, -333, -328, -330, -333, -330, -328, -330, -328, -326, -328, -328, -326])
('ECG', 1747483336901701480, [-323, -321, -321, -326, -326, -323, -323, -333, -338, -326, -318, -311, -301, -296, -296, -311, -333, -335, -321, -318, -326, -330, -360, -408, -277, 192, 715, 781, -48, -983, -754, -214, -350, -462, -316, -316, -364, -321, -304, -313, -291, -272, -267, -250, -233, -228, -223, -199, -182, -177, -177, -175, -180, -192, -206, -228, -250, -277, -301, -321, -345, -369, -384, -391, -401, -399, -396, -401, -401, -391, -382, -372, -367])
('ECG', 1747483337463481910, [-369, -369, -362, -357, -364, -364, -352, -345, -352, -360, -355, -345, -350, -362, -360, -352, -357, -360, -355, -352, -350, -343, -343, -355, -357, -355, -352, -350, -345, -343, -347, -347, -340, -340, -343, -343, -340, -340, -338, -340, -340, -335, -338, -345, -345, -343, -347, -340, -326, -318, -318, -313, -313, -328, -352, -357, -340, -338, -347, -362, -408, -423, -163, 396, 834, 525, -601, -1155, -552, -228, -445, -403, -284])
('ECG', 1747483338025262342, [-343, -352, -301, -299, -294, -272, -262, -250, -233, -223, -209, -194, -182, -172, -163, -155, -160, -175, -187, -206, -233, -255, -279, -309, -340, -364, -377, -384, -394, -401, -401, -396, -394, -386, -374, -369, -367, -360, -355, -355, -352, -345, -343, -343, -340, -340, -343, -345, -345, -340, -343, -347, -347, -347, -345, -347, -350, -343, -335, -340, -345, -343, -340, -340, -338, -335, -335, -340, -340, -328, -326, -333, -330])
('ECG', 1747483338587012254, [-323, -326, -326, -326, -323, -323, -323, -326, -323, -328, -343, -343, -323, -309, -309, -301, -287, -291, -316, -333, -333, -328, -326, -330, -345, -396, -391, -82, 489, 873, 501, -581, -1019, -437, -216, -462, -408, -294, -355, -355, -299, -306, -309, -279, -270, -265, -248, -231, -218, -209, -192, -175, -165, -165, -167, -170, -184, -206, -223, -250, -284, -311, -335, -360, -374, -386, -394, -396, -399, -396, -391, -384, -382])
('ECG', 1747483339148792684, [-379, -369, -364, -364, -362, -357, -355, -357, -352, -347, -345, -347, -347, -345, -347, -350, -350, -347, -347, -347, -345, -347, -347, -345, -343, -340, -340, -343, -340, -338, -340, -340, -338, -335, -333, -335, -335, -328, -328, -330, -330, -328, -330, -335, -328, -326, -328, -328, -328, -330, -338, -340, -326, -306, -301, -296, -284, -294, -321, -333, -328, -321, -321, -323, -343, -394, -357, 4, 559, 832, 296, -751, -939])
('ECG', 1747483339710573114, [-335, -248, -457, -367, -299, -362, -340, -294, -304, -299, -267, -260, -257, -236, -218, -214, -206, -192, -172, -160, -163, -165, -170, -189, -211, -231, -250, -277, -311, -343, -364, -374, -389, -399, -399, -401, -399, -391, -389, -389, -379, -369, -364, -362, -364, -360, -345, -345, -355, -355, -350, -352, -360, -360, -355, -352, -355, -360, -360, -360, -352, -350, -355, -355, -350, -352, -352, -350, -347, -347, -350, -352, -345])
('ECG', 1747483340272323026, [-340, -347, -347, -343, -340, -340, -338, -335, -333, -338, -343, -335, -330, -345, -352, -338, -321, -316, -316, -309, -304, -323, -347, -347, -340, -345, -347, -345, -382, -430, -260, 245, 751, 686, -291, -1138, -744, -233, -386, -425, -287, -326, -362, -304, -294, -309, -279, -257, -257, -253, -238, -221, -206, -192, -180, -170, -163, -165, -182, -194, -204, -226, -255, -284, -313, -345, -369, -391, -408, -413, -416, -420, -420])
('ECG', 1747483340834103456, [-413, -408, -399, -391, -386, -382, -377, -377, -372, -369, -372, -372, -364, -362, -367, -367, -364, -364, -364, -364, -367, -372, -369, -364, -364, -369, -372, -367, -360, -355, -362, -360, -347, -355, -357, -345, -343, -345, -340, -340, -340, -338, -338, -335, -338, -338, -340, -343, -335, -316, -311, -313, -299, -294, -316, -335, -335, -335, -330, -326, -335, -384, -406, -163, 391, 846, 583, -508, -1109, -537, -184, -413, -399])
('ECG', 1747483341395853370, [-272, -326, -338, -282, -282, -284, -255, -243, -245, -226, -201, -192, -182, -165, -150, -145, -141, -143, -150, -163, -180, -201, -231, -260, -287, -316, -347, -367, -372, -377, -386, -389, -384, -377, -374, -369, -362, -355, -350, -345, -340, -338, -338, -340, -338, -333, -335, -338, -338, -338, -340, -335, -333, -340, -343, -340, -340, -340, -340, -340, -338, -335, -338, -338, -335, -333, -335, -333, -330, -328, -326, -326, -323])
('ECG', 1747483341957633800, [-326, -326, -318, -313, -318, -318, -316, -316, -321, -328, -328, -313, -299, -294, -291, -279, -279, -296, -311, -316, -313, -309, -311, -326, -374, -391, -128, 428, 861, 596, -447, -1019, -493, -180, -418, -408, -279, -333, -343, -282, -284, -291, -262, -245, -245, -228, -211, -204, -192, -172, -155, -148, -143, -143, -150, -165, -180, -197, -221, -255, -289, -318, -343, -360, -374, -379, -384, -389, -386, -377, -372, -369, -364])
('ECG', 1747483342519414230, [-360, -352, -347, -345, -338, -335, -340, -340, -338, -338, -333, -328, -330, -335, -333, -333, -335, -338, -340, -335, -333, -343, -345, -340, -340, -343, -338, -333, -333, -340, -335, -328, -328, -330, -333, -330, -328, -328, -328, -323, -318, -323, -328, -323, -321, -321, -318, -316, -318, -318, -321, -328, -335, -338, -323, -306, -304, -301, -289, -284, -313, -338, -328, -321, -326, -326, -335, -386, -399, -131, 420, 849, 562])
('ECG', 1747483343081164142, [-513, -1065, -506, -192, -425, -406, -284, -338, -350, -289, -287, -296, -277, -262, -257, -243, -228, -214, -197, -182, -170, -158, -153, -160, -170, -177, -192, -216, -240, -267, -294, -323, -352, -367, -377, -394, -401, -396, -399, -399, -389, -382, -377, -369, -362, -360, -360, -355, -352, -360, -364, -355, -347, -355, -360, -352, -347, -355, -362, -357, -352, -355, -360, -357, -355, -357, -360, -357, -355, -350, -345, -340, -340])
('ECG', 1747483343642944572, [-340, -343, -345, -345, -345, -338, -330, -333, -340, -340, -330, -326, -326, -338, -340, -330, -330, -335, -330, -330, -338, -335, -328, -318, -311, -309, -301, -296, -313, -335, -340, -333, -330, -333, -340, -377, -425, -282, 209, 751, 778, -150, -1097, -778, -223, -369, -445, -291, -306, -352, -301, -287, -299, -277, -255, -255, -240, -221, -211, -197, -182, -170, -153, -150, -155, -158, -167, -187, -206, -228, -260, -289, -313])
('ECG', 1747483344204694484, [-340, -362, -374, -382, -389, -394, -389, -379, -374, -374, -364, -352, -350, -350, -343, -338, -338, -340, -335, -330, -335, -335, -333, -333, -338, -338, -338, -340, -343, -343, -343, -340, -343, -343, -338, -335, -338, -338, -333, -333, -333, -328, -328, -326, -323, -326, -323, -318, -321, -321, -318, -321, -321, -313, -309, -313, -316, -313, -311, -313, -313, -313, -311, -313, -316, -321, -321, -309, -296, -296, -289, -274, -284])
('ECG', 1747483344766474916, [-309, -323, -323, -316, -309, -313, -345, -399, -311, 119, 681, 861, 160, -868, -844, -250, -291, -467, -338, -299, -364, -326, -287, -299, -289, -265, -262, -250, -228, -216, -206, -189, -172, -160, -153, -150, -155, -165, -180, -194, -214, -243, -272, -304, -335, -355, -360, -369, -386, -391, -389, -384, -379, -377, -369, -362, -360, -357, -350, -347, -350, -345, -340, -338, -338, -338, -338, -333, -338, -345, -343, -335, -335])
('ECG', 1747483345328224828, [-338, -340, -343, -343, -343, -338, -333, -340, -345, -335, -330, -338, -335, -330, -330, -330, -328, -326, -333, -338, -326, -316, -323, -326, -321, -326, -326, -321, -321, -323, -323, -326, -323, -318, -323, -333, -333, -323, -309, -301, -299, -291, -299, -321, -338, -333, -323, -321, -326, -352, -411, -355, 36, 598, 868, 282, -827, -973, -328, -260, -467, -357, -296, -360, -330, -294, -309, -301, -274, -272, -267, -245, -223])
('ECG', 1747483345890005258, [-211, -197, -182, -170, -165, -165, -167, -175, -197, -218, -236, -257, -291, -321, -338, -367, -396, -403, -411, -418, -416, -413, -413, -406, -399, -396, -389, -382, -384, -384, -384, -379, -364, -362, -367, -364, -367, -369, -364, -364, -367, -374, -377, -372, -367, -367, -369, -369, -369, -364, -362, -372, -377, -369, -367, -369, -364, -360, -362, -362, -360, -357, -357, -360, -357, -352, -355, -360, -360, -360, -352, -338, -328])
('ECG', 1747483346451755170, [-326, -316, -313, -335, -360, -362, -350, -343, -345, -357, -396, -423, -223, 282, 742, 591, -425, -1136, -637, -201, -396, -408, -299, -355, -364, -299, -291, -294, -267, -257, -255, -238, -226, -218, -197, -184, -175, -158, -148, -145, -153, -172, -199, -216, -228, -260, -301, -333, -355, -374, -389, -401, -408, -411, -406, -399, -399, -396, -386, -382, -379, -374, -369, -364, -367, -367, -360, -357, -362, -362, -357, -362, -367])
('ECG', 1747483347013505082, [-364, -362, -364, -369, -369, -367, -362, -364, -362, -355, -357, -360, -352, -352, -355, -355, -350, -343, -340, -345, -343, -340, -340, -343, -343, -343, -347, -345, -323, -311, -316, -309, -296, -311, -338, -343, -338, -335, -338, -343, -374, -411, -255, 214, 678, 610, -260, -1002, -654, -218, -382, -433, -304, -328, -362, -311, -299, -309, -284, -267, -262, -250, -233, -218, -206, -189, -172, -163, -158, -155, -158, -167, -182])
('ECG', 1747483347575285512, [-201, -228, -257, -296, -330, -355, -372, -391, -403, -401, -396, -399, -401, -394, -386, -384, -377, -364, -362, -364, -360, -355, -352, -352, -355, -352, -347, -350, -350, -345, -347, -355, -352, -350, -350, -352, -350, -350, -350, -352, -350, -347, -347, -347, -347, -345, -350, -357, -345, -328, -321, -318, -309, -299, -316, -343, -347, -338, -333, -333, -335, -367, -406, -257, 216, 695, 635, -253, -1031, -693, -218, -362, -423])
('ECG', 1747483348137035426, [-296, -318, -347, -294, -279, -296, -277, -255, -250, -238, -218, -199, -189, -177, -158, -145, -141, -138, -141, -155, -172, -189, -216, -253, -291, -326, -352, -377, -391, -399, -403, -406, -406, -399, -389, -384, -382, -377, -372, -364, -357, -357, -355, -352, -352, -347, -345, -347, -350, -347, -347, -350, -350, -350, -350, -352, -355, -350, -345, -347, -352, -350, -350, -357, -360, -350, -333, -318, -316, -311, -306, -326, -350])
('ECG', 1747483348698785338, [-347, -338, -338, -338, -343, -382, -408, -216, 274, 705, 525, -416, -1036, -591, -214, -386, -401, -289, -326, -343, -291, -284, -291, -270, -255, -250, -236, -218, -206, -194, -175, -158, -145, -141, -141, -145, -158, -177, -197, -221, -257, -296, -330, -355, -374, -389, -396, -396, -399, -396, -389, -379, -374, -372, -367, -360, -355, -350, -350, -347, -343, -343, -343, -338, -340, -345, -343, -343, -345, -347, -343, -343, -345])
('ECG', 1747483349260535250, [-345, -343, -343, -345, -345, -343, -345, -345, -338, -333, -335, -343, -345, -345, -335, -321, -311, -309, -304, -301, -321, -338, -340, -335, -335, -335, -340, -372, -408, -248, 211, 659, 574, -291, -997, -639, -221, -374, -418, -296, -321, -352, -309, -294, -296, -279, -270, -265, -248, -231, -221, -209, -192, -172, -163, -158, -150, -160, -180, -192, -206, -228, -255, -291, -323, -345, -364, -377, -382, -396, -401, -391, -382])
('ECG', 1747483349822305506, [-377, -372, -364, -360, -362, -360, -350, -347, -350, -355, -352, -350, -350, -347, -347, -350, -352, -350, -350, -352, -360, -360, -355, -355, -350, -347, -347, -350, -350, -352, -350, -345, -347, -345, -343, -345, -347, -345, -343, -343, -340, -338, -340, -343, -340, -338, -335, -343, -347, -338, -326, -321, -318, -311, -304, -313, -340, -350, -343, -340, -338, -340, -364, -413, -357, 4, 528, 751, 143, -873, -936, -345, -296])
('ECG', 1747483350384065592, [-442, -340, -311, -362, -330, -299, -306, -294, -277, -274, -260, -240, -233, -223, -206, -197, -189, -180, -184, -197, -199, -204, -228, -250, -265, -284, -311, -340, -362, -374, -382, -399, -408, -406, -396, -384, -379, -384, -377, -362, -357, -362, -357, -355, -360, -364, -362, -360, -360, -357, -355, -360, -364, -364, -367, -367, -364, -367, -369, -364, -364, -364, -364, -362, -362, -357, -355, -355, -357, -355, -350, -350, -352])
('ECG', 1747483350945815504, [-350, -345, -350, -357, -350, -330, -321, -323, -318, -306, -316, -340, -352, -352, -347, -345, -343, -364, -423, -362, 34, 583, 798, 126, -936, -941, -309, -296, -450, -326, -296, -352, -311, -279, -299, -282, -255, -255, -245, -226, -211, -201, -187, -172, -163, -158, -153, -155, -170, -187, -204, -226, -248, -277, -309, -330, -352, -372, -377, -377, -382, -384, -379, -372, -367, -362, -355, -347, -345, -345, -343, -338, -340])
('ECG', 1747483351507565418, [-340, -338, -338, -340, -338, -338, -335, -338, -340, -335, -335, -340, -340, -335, -335, -338, -335, -333, -335, -338, -335, -330, -330, -335, -330, -321, -326, -328, -323, -323, -326, -326, -323, -326, -328, -333, -335, -323, -306, -301, -299, -289, -289, -309, -326, -323, -323, -328, -330, -338, -382, -389, -109, 445, 849, 532, -523, -1021, -467, -194, -425, -396, -282, -338, -343, -287, -291, -296, -265, -250, -245, -231, -216])
('ECG', 1747483352069315330, [-204, -187, -167, -155, -145, -143, -145, -150, -160, -175, -194, -216, -248, -279, -306, -330, -352, -357, -357, -367, -372, -367, -360, -355, -350, -345, -340, -335, -335, -335, -330, -330, -330, -330, -328, -330, -330, -328, -328, -330, -330, -328, -328, -333, -333, -328, -328, -330, -330, -326, -326, -328, -328, -326, -323, -326, -321, -316, -318, -323, -321, -313, -313, -316, -316, -316, -313, -316, -316, -321, -328, -318, -296])
('ECG', 1747483352631095760, [-289, -291, -282, -282, -306, -326, -326, -318, -309, -313, -330, -367, -347, -29, 528, 866, 406, -674, -978, -369, -206, -433, -360, -267, -330, -326, -272, -274, -277, -260, -250, -233, -216, -211, -201, -180, -163, -155, -153, -148, -153, -165, -175, -192, -214, -243, -270, -294, -316, -340, -357, -369, -382, -389, -384, -379, -374, -367, -364, -360, -352, -350, -347, -343, -338, -340, -343, -347, -343, -338, -338, -347, -347])
('ECG', 1747483353192845672, [-340, -343, -345, -340, -340, -345, -345, -345, -340, -335, -335, -338, -338, -338, -335, -338, -340, -338, -338, -335, -333, -330, -330, -330, -328, -330, -343, -345, -333, -316, -309, -309, -304, -299, -313, -330, -343, -345, -338, -323, -333, -386, -413, -172, 372, 827, 596, -484, -1141, -596, -206, -413, -394, -272, -326, -338, -279, -282, -291, -267, -250, -240, -226, -216, -204, -189, -180, -170, -158, -153, -160, -172, -184])
('ECG', 1747483353754595584, [-199, -226, -250, -274, -304, -326, -340, -360, -379, -386, -389, -394, -391, -382, -372, -369, -367, -357, -350, -350, -350, -345, -343, -343, -340, -338, -340, -343, -345, -343, -343, -345, -347, -345, -343, -343, -338, -335, -340, -343, -340, -335, -338, -338, -338, -330, -328, -330, -328, -326, -326, -328, -330, -335, -335, -318, -301, -301, -301, -291, -296, -313, -326, -326, -318, -316, -323, -357, -403, -277, 199, 747, 815])
('ECG', 1747483354316345496, [-36, -1002, -773, -199, -321, -440, -291, -284, -338, -291, -262, -272, -260, -245, -236, -221, -209, -197, -180, -167, -158, -150, -141, -141, -150, -165, -180, -199, -223, -248, -277, -306, -335, -355, -364, -372, -377, -377, -374, -372, -364, -360, -352, -347, -345, -343, -335, -333, -335, -338, -335, -335, -338, -330, -328, -335, -340, -335, -333, -335, -338, -335, -335, -338, -338, -333, -333, -335, -330, -326, -326, -328, -328])
('ECG', 1747483354878095410, [-326, -326, -328, -326, -316, -316, -321, -321, -316, -318, -328, -333, -321, -301, -296, -296, -284, -279, -304, -326, -326, -318, -318, -321, -330, -374, -377, -92, 447, 802, 430, -581, -970, -416, -199, -416, -364, -267, -326, -323, -270, -279, -282, -250, -243, -236, -211, -199, -197, -182, -167, -155, -150, -150, -153, -160, -180, -197, -211, -231, -255, -287, -311, -328, -343, -360, -367, -369, -372, -367, -360, -355, -352])
('ECG', 1747483355439845322, [-345, -338, -335, -335, -333, -330, -333, -335, -330, -323, -326, -333, -330, -328, -330, -333, -333, -333, -330, -330, -328, -326, -328, -330, -328, -326, -326, -326, -323, -323, -326, -326, -321, -316, -321, -321, -318, -321, -318, -309, -306, -311, -313, -318, -321, -318, -304, -289, -289, -284, -272, -282, -311, -323, -316, -311, -311, -316, -347, -386, -233, 226, 693, 630, -233, -963, -615, -182, -343, -399, -272, -291, -326])
('ECG', 1747483356001595234, [-277, -260, -270, -255, -238, -228, -216, -204, -197, -180, -160, -153, -150, -143, -143, -155, -167, -177, -197, -218, -238, -265, -296, -321, -333, -340, -350, -360, -362, -360, -355, -340, -333, -335, -333, -330, -328, -323, -321, -326, -328, -321, -321, -323, -318, -321, -328, -330, -328, -330, -333, -330, -328, -333, -333, -330, -330, -330, -328, -326, -326, -323, -323, -330, -328, -323, -326, -328, -323, -323, -330, -326, -321])
('ECG', 1747483356563345146, [-321, -318, -316, -323, -333, -328, -306, -289, -291, -291, -289, -304, -323, -330, -326, -316, -323, -343, -379, -377, -114, 416, 795, 420, -642, -1048, -467, -223, -401, -335, -250, -311, -311, -260, -260, -265, -248, -233, -226, -214, -197, -182, -175, -165, -150, -148, -153, -155, -170, -187, -199, -216, -245, -267, -282, -309, -335, -352, -367, -374, -379, -382, -379, -372, -367, -357, -350, -347, -345, -343, -338, -343, -343])
('ECG', 1747483357125095058, [-335, -333, -338, -340, -340, -340, -343, -347, -345, -340, -345, -347, -340, -340, -343, -345, -345, -338, -335, -340, -335, -330, -335, -333, -326, -326, -330, -326, -323, -323, -323, -326, -330, -328, -311, -294, -294, -294, -284, -291, -316, -328, -321, -313, -316, -323, -352, -396, -270, 194, 725, 764, -109, -1036, -759, -197, -313, -406, -267, -272, -316, -270, -250, -260, -245, -226, -218, -204, -189, -180, -170, -153, -141])
('ECG', 1747483357686844970, [-136, -136, -133, -143, -158, -170, -184, -211, -240, -265, -284, -311, -335, -350, -355, -360, -364, -362, -357, -352, -347, -340, -333, -330, -328, -323, -323, -326, -321, -316, -318, -321, -318, -318, -321, -323, -323, -323, -326, -328, -326, -323, -326, -326, -323, -323, -321, -318, -318, -318, -318, -318, -316, -309, -311, -313, -311, -309, -311, -309, -306, -311, -313, -316, -318, -316, -301, -287, -284, -282, -272, -282, -306])
('ECG', 1747483358248594884, [-321, -316, -304, -299, -309, -340, -374, -236, 221, 729, 764, -60, -934, -693, -187, -313, -416, -282, -284, -330, -287, -262, -272, -255, -236, -233, -218, -201, -189, -180, -163, -150, -143, -138, -133, -143, -158, -167, -182, -206, -231, -255, -287, -313, -333, -345, -352, -360, -364, -362, -360, -357, -350, -340, -340, -338, -333, -326, -323, -323, -321, -318, -318, -316, -313, -313, -321, -321, -318, -321, -313, -306, -309])
('ECG', 1747483358810344796, [-313, -313, -318, -318, -316, -316, -318, -316, -311, -311, -313, -313, -306, -304, -306, -304, -304, -309, -306, -304, -304, -304, -304, -301, -301, -304, -306, -301, -299, -306, -316, -304, -287, -282, -277, -267, -267, -282, -299, -301, -296, -296, -296, -299, -328, -367, -231, 223, 715, 732, -90, -922, -659, -182, -323, -408, -272, -279, -328, -284, -260, -267, -250, -231, -228, -218, -201, -192, -180, -167, -155, -138, -119])
('ECG', 1747483359372094708, [-121, -136, -150, -170, -194, -214, -231, -255, -284, -309, -328, -345, -355, -360, -367, -374, -367, -355, -352, -347, -343, -343, -338, -326, -323, -326, -326, -326, -323, -321, -318, -321, -318, -316, -326, -330, -323, -316, -326, -335, -330, -323, -330, -330, -323, -323, -330, -328, -326, -323, -323, -326, -323, -316, -316, -318, -311, -311, -316, -313, -311, -313, -309, -311, -318, -318, -316, -311, -296, -287, -289, -284, -277])
('ECG', 1747483359933814102, [-294, -313, -313, -311, -316, -318, -318, -347, -399, -248, 253, 776, 732, -233, -1090, -710, -204, -360, -399, -260, -291, -326, -270, -262, -272, -245, -236, -238, -218, -197, -187, -175, -158, -150, -143, -136, -138, -148, -163, -180, -201, -223, -243, -267, -301, -330, -345, -357, -372, -377, -382, -384, -379, -372, -367, -360, -352, -347, -345, -343, -335, -328, -328, -328, -328, -328, -328, -328, -328, -330, -333, -335, -330])
('ECG', 1747483360495564014, [-330, -330, -328, -326, -328, -330, -326, -321, -321, -326, -323, -311, -311, -316, -313, -309, -311, -316, -311, -306, -306, -306, -306, -304, -299, -299, -304, -309, -313, -304, -282, -272, -277, -265, -255, -282, -306, -304, -296, -291, -299, -316, -362, -357, -48, 523, 902, 498, -596, -985, -386, -184, -418, -352, -248, -311, -311, -257, -262, -265, -240, -228, -221, -206, -192, -175, -160, -148, -138, -128, -124, -126, -133])
('ECG', 1747483361057313926, [-145, -165, -187, -211, -238, -267, -301, -326, -343, -357, -367, -369, -364, -367, -364, -360, -352, -347, -347, -338, -330, -330, -330, -323, -318, -318, -318, -318, -313, -313, -318, -313, -311, -318, -321, -316, -316, -321, -321, -321, -318, -318, -318, -318, -316, -318, -318, -313, -313, -316, -313, -311, -311, -309, -309, -309, -304, -301, -301, -296, -296, -299, -294, -291, -296, -296, -291, -291, -301, -311, -304, -289, -282])
('ECG', 1747483361619038408, [-274, -267, -260, -270, -294, -304, -299, -296, -296, -291, -306, -367, -340, 0, 549, 858, 384, -652, -890, -321, -216, -420, -335, -260, -318, -299, -260, -270, -262, -238, -233, -226, -209, -194, -182, -170, -158, -145, -136, -131, -131, -141, -155, -172, -189, -211, -240, -267, -291, -318, -340, -350, -355, -362, -367, -362, -357, -352, -347, -343, -338, -335, -330, -326, -321, -321, -321, -316, -313, -313, -313, -311, -311])
('ECG', 1747483362180793406, [-316, -316, -313, -313, -318, -321, -316, -316, -318, -318, -311, -309, -309, -309, -309, -309, -306, -301, -299, -301, -296, -291, -291, -294, -291, -291, -291, -291, -291, -291, -289, -289, -289, -289, -289, -289, -289, -289, -289, -284, -287, -299, -304, -294, -279, -267, -260, -257, -260, -277, -296, -299, -296, -291, -289, -304, -345, -367, -155, 350, 793, 620, -335, -956, -508, -170, -377, -386, -260, -296, -318, -267, -262])
('ECG', 1747483362742533146, [-272, -250, -233, -226, -214, -201, -194, -175, -153, -143, -136, -128, -128, -136, -143, -158, -177, -197, -223, -255, -289, -316, -335, -347, -362, -372, -369, -369, -364, -357, -360, -357, -343, -333, -338, -338, -333, -328, -323, -323, -328, -323, -321, -318, -321, -326, -328, -326, -330, -333, -335, -335, -333, -330, -326, -321, -326, -330, -326, -323, -328, -318, -306, -313, -323, -316, -318, -323, -316, -306, -309, -313, -311])
('ECG', 1747483363304283058, [-309, -304, -304, -309, -318, -318, -309, -294, -282, -274, -277, -282, -291, -304, -316, -316, -316, -316, -313, -343, -391, -270, 187, 727, 800, -55, -1039, -822, -245, -328, -416, -277, -279, -328, -289, -267, -274, -257, -240, -233, -223, -211, -197, -180, -160, -150, -143, -138, -133, -138, -160, -184, -194, -211, -240, -270, -306, -345, -364, -382, -396, -389, -379, -377, -369, -367, -377, -382, -364, -352, -362, -360, -345])
('ECG', 1747483363866032970, [-345, -350, -345, -345, -347, -335, -321, -328, -340, -343, -338, -328, -330, -340, -335, -330, -335, -326, -311, -313, -321, -321, -318, -309, -301, -304, -306, -306, -301, -294, -296, -296, -289, -291, -291, -279, -279, -291, -289, -294, -301, -287, -272, -260, -243, -245, -272, -287, -291, -294, -301, -309, -301, -323, -335, -72, 503, 939, 596, -537, -1063, -430, -128, -399, -362, -223, -291, -306, -240, -243, -255, -228, -214])
('ECG', 1747483364427752364, [-221, -204, -170, -143, -133, -126, -109, -97, -99, -102, -94, -104, -136, -163, -184, -223, -260, -291, -321, -343, -352, -362, -374, -377, -377, -377, -367, -355, -355, -352, -343, -340, -340, -338, -333, -326, -321, -318, -323, -323, -318, -316, -318, -330, -338, -333, -333, -338, -321, -309, -338, -352, -323, -304, -318, -326, -316, -309, -311, -318, -321, -313, -306, -311, -318, -311, -299, -311, -333, -326, -289, -272, -282])
('ECG', 1747483364989502278, [-284, -270, -274, -296, -306, -311, -318, -316, -309, -328, -382, -328, 48, 620, 893, 272, -861, -983, -306, -228, -428, -316, -265, -340, -309, -262, -270, -250, -226, -233, -233, -216, -199, -180, -158, -143, -131, -126, -126, -126, -133, -150, -175, -201, -216, -236, -277, -326, -355, -374, -394, -394, -384, -391, -403, -403, -401, -382, -360, -367, -374, -357, -352, -360, -350, -343, -347, -347, -347, -347, -340, -343, -352])
('ECG', 1747483365551242018, [-357, -352, -350, -352, -355, -345, -343, -357, -357, -340, -335, -343, -340, -340, -343, -343, -350, -352, -343, -326, -323, -328, -316, -309, -306, -291, -282, -301, -333, -345, -321, -304, -323, -350, -369, -394, -228, 294, 846, 749, -347, -1194, -698, -197, -377, -377, -231, -279, -306, -240, -231, -253, -228, -199, -199, -194, -175, -158, -143, -128, -111, -99, -90, -82, -82, -97, -119, -143, -177, -214, -257, -294, -323])
('ECG', 1747483366112971584, [-347, -362, -369, -382, -386, -372, -364, -362, -355, -347, -338, -333, -333, -323, -311, -313, -316, -313, -309, -309, -311, -313, -313, -316, -318, -323, -321, -323, -328, -326, -321, -321, -321, -316, -318, -326, -326, -321, -318, -313, -318, -326, -323, -309, -304, -321, -330, -309, -284, -287, -301, -294, -282, -299, -318, -311, -309, -313, -311, -313, -340, -394, -321, 107, 703, 919, 189, -922, -900, -221, -236, -433, -294])
('ECG', 1747483366674721496, [-257, -330, -284, -238, -248, -240, -216, -206, -199, -184, -167, -153, -136, -121, -109, -99, -94, -99, -107, -121, -143, -170, -197, -228, -274, -311, -330, -350, -369, -377, -374, -369, -367, -364, -357, -350, -347, -340, -333, -328, -328, -328, -323, -318, -321, -321, -316, -316, -321, -316, -313, -316, -311, -304, -309, -318, -323, -318, -313, -316, -318, -316, -309, -306, -311, -316, -313, -309, -309, -309, -309, -309, -306])
('ECG', 1747483367236471408, [-309, -316, -318, -301, -287, -287, -282, -270, -279, -299, -309, -306, -299, -301, -316, -350, -384, -206, 323, 875, 844, -172, -1107, -705, -148, -352, -435, -262, -287, -340, -279, -260, -274, -248, -221, -214, -204, -187, -170, -158, -148, -131, -114, -104, -104, -109, -124, -143, -170, -197, -228, -260, -291, -323, -347, -364, -379, -386, -389, -386, -384, -377, -364, -360, -360, -352, -340, -333, -333, -333, -330, -323, -323])
('ECG', 1747483367798190804, [-328, -321, -316, -326, -335, -323, -321, -328, -318, -309, -316, -316, -311, -313, -313, -318, -323, -316, -309, -313, -316, -309, -306, -311, -311, -309, -309, -316, -323, -326, -309, -291, -291, -291, -279, -287, -313, -323, -321, -318, -318, -318, -347, -408, -338, 102, 720, 958, 175, -1034, -1000, -279, -287, -447, -299, -272, -335, -294, -267, -287, -270, -238, -228, -218, -204, -180, -155, -145, -141, -141, -143, -133, -119])
('ECG', 1747483368359940716, [-119, -141, -175, -214, -257, -287, -289, -321, -382, -372, -318, -343, -401, -401, -386, -394, -389, -374, -364, -357, -360, -357, -347, -343, -340, -328, -321, -323, -330, -333, -338, -338, -328, -321, -321, -326, -323, -318, -323, -330, -330, -326, -335, -330, -306, -299, -309, -311, -311, -313, -309, -306, -306, -304, -301, -313, -323, -311, -287, -282, -289, -279, -274, -284, -301, -304, -289, -289, -306, -304, -330, -389, -214])
('ECG', 1747483368921690628, [340, 888, 822, -214, -1126, -698, -150, -345, -399, -226, -265, -316, -250, -228, -248, -233, -211, -204, -192, -172, -150, -126, -111, -116, -116, -90, -70, -80, -102, -114, -136, -172, -209, -250, -291, -304, -306, -328, -350, -357, -362, -367, -362, -357, -343, -326, -328, -321, -304, -309, -321, -309, -287, -291, -309, -311, -306, -311, -316, -309, -304, -299, -282, -291, -318, -323, -313, -309, -301, -296, -301, -311, -304])
('ECG', 1747483369483410022, [-294, -291, -291, -299, -306, -296, -291, -304, -304, -284, -282, -299, -304, -289, -284, -284, -277, -274, -267, -248, -257, -299, -311, -287, -279, -294, -304, -335, -364, -189, 311, 827, 793, -153, -1024, -659, -133, -328, -418, -257, -274, -330, -282, -257, -255, -228, -218, -211, -189, -175, -163, -153, -143, -128, -104, -90, -99, -114, -121, -133, -155, -180, -204, -233, -272, -301, -326, -343, -360, -369, -357, -340, -347])
('ECG', 1747483370045159934, [-350, -333, -328, -338, -335, -323, -309, -299, -304, -301, -296, -301, -306, -299, -289, -291, -301, -311, -321, -311, -296, -301, -304, -301, -304, -306, -306, -304, -306, -309, -301, -289, -291, -294, -294, -301, -299, -294, -294, -291, -291, -287, -282, -284, -289, -282, -287, -291, -274, -274, -289, -289, -287, -282, -277, -279, -289, -294, -284, -279, -284, -270, -236, -233, -265, -289, -299, -299, -289, -279, -289, -335, -347])
('ECG', 1747483370606909846, [-107, 406, 832, 652, -335, -1000, -520, -124, -340, -374, -240, -270, -299, -260, -248, -233, -206, -211, -216, -189, -170, -160, -143, -136, -128, -124, -119, -109, -107, -126, -150, -165, -187, -218, -243, -257, -284, -309, -318, -326, -335, -343, -345, -338, -326, -321, -321, -318, -313, -313, -306, -296, -294, -294, -296, -304, -311, -311, -301, -294, -294, -296, -304, -313, -311, -301, -294, -299, -301, -296, -296, -301, -306])
('ECG', 1747483371168629240, [-304, -294, -289, -291, -299, -299, -284, -289, -309, -306, -282, -274, -291, -294, -287, -294, -296, -282, -279, -289, -287, -294, -304, -291, -272, -272, -279, -262, -243, -250, -272, -282, -279, -279, -279, -287, -316, -352, -216, 255, 778, 781, -121, -1012, -703, -172, -304, -382, -248, -265, -306, -253, -238, -253, -233, -209, -197, -187, -175, -165, -150, -136, -121, -114, -111, -114, -119, -131, -153, -180, -199, -214, -243])
('ECG', 1747483371730379154, [-274, -299, -318, -338, -350, -355, -357, -360, -355, -345, -335, -333, -326, -318, -323, -326, -313, -301, -309, -316, -311, -309, -304, -306, -316, -321, -321, -318, -313, -304, -306, -313, -313, -309, -309, -316, -318, -313, -313, -316, -313, -309, -309, -309, -301, -294, -299, -306, -301, -296, -299, -296, -299, -313, -313, -294, -282, -272, -265, -257, -257, -274, -301, -309, -301, -299, -291, -289, -328, -391, -255, 238, 795])
('ECG', 1747483372292098548, [832, -121, -1104, -783, -197, -318, -379, -233, -262, -304, -243, -228, -245, -226, -199, -189, -180, -167, -158, -143, -126, -111, -107, -107, -109, -114, -121, -138, -167, -194, -216, -245, -274, -296, -318, -340, -347, -345, -347, -352, -350, -340, -333, -330, -321, -311, -309, -311, -306, -304, -299, -294, -291, -291, -299, -304, -301, -296, -301, -306, -309, -306, -306, -309, -306, -299, -299, -301, -299, -294, -299, -301, -301])
('ECG', 1747483372853833202, [-304, -301, -294, -284, -279, -279, -287, -294, -294, -301, -296, -274, -260, -257, -245, -236, -250, -270, -284, -282, -272, -279, -296, -343, -340, -51, 513, 927, 608, -481, -1014, -437, -145, -391, -360, -223, -274, -284, -233, -238, -243, -218, -209, -206, -189, -165, -145, -133, -128, -116, -99, -97, -109, -119, -138, -158, -155, -163, -206, -253, -282, -309, -328, -343, -355, -355, -352, -352, -350, -340, -333, -330, -330])
('ECG', 1747483373415567854, [-328, -313, -299, -296, -304, -304, -301, -301, -301, -296, -299, -301, -296, -296, -301, -301, -301, -306, -306, -299, -294, -294, -296, -294, -291, -289, -291, -291, -287, -291, -291, -287, -282, -284, -284, -282, -282, -282, -287, -291, -296, -284, -260, -250, -257, -248, -240, -262, -284, -289, -284, -277, -272, -279, -323, -326, -46, 503, 885, 528, -525, -956, -372, -133, -379, -340, -221, -279, -296, -248, -240, -236, -209])
('ECG', 1747483373977287248, [-192, -187, -177, -167, -155, -138, -124, -116, -111, -107, -107, -116, -128, -136, -148, -182, -216, -240, -267, -296, -316, -328, -338, -345, -343, -338, -330, -326, -323, -318, -311, -311, -306, -299, -294, -296, -294, -294, -296, -301, -304, -296, -289, -294, -301, -299, -299, -304, -299, -299, -301, -301, -301, -301, -301, -291, -282, -289, -296, -284, -277, -287, -289, -287, -291, -291, -282, -272, -277, -279, -279, -279, -282])
('ECG', 1747483374539037160, [-284, -289, -284, -270, -257, -257, -248, -233, -248, -277, -284, -272, -272, -274, -274, -301, -343, -194, 274, 766, 747, -111, -931, -630, -145, -294, -374, -238, -253, -294, -243, -228, -240, -218, -197, -192, -182, -170, -158, -145, -133, -119, -107, -104, -111, -116, -124, -143, -167, -189, -204, -223, -255, -284, -301, -316, -328, -335, -338, -335, -333, -323, -316, -311, -309, -306, -306, -306, -299, -291, -284, -284, -291])
('ECG', 1747483375100756556, [-294, -289, -289, -291, -287, -294, -304, -296, -291, -296, -301, -296, -291, -296, -296, -289, -294, -299, -294, -289, -289, -289, -289, -287, -282, -282, -287, -284, -282, -284, -284, -279, -284, -289, -287, -291, -289, -277, -262, -257, -253, -243, -253, -277, -287, -284, -279, -277, -282, -309, -357, -238, 223, 751, 788, -70, -990, -739, -180, -277, -372, -238, -243, -289, -245, -223, -231, -214, -199, -192, -180, -165, -153])
('ECG', 1747483375662475950, [-145, -133, -119, -111, -107, -104, -119, -138, -143, -155, -182, -206, -228, -262, -287, -299, -311, -328, -345, -352, -345, -335, -330, -326, -316, -316, -313, -306, -306, -309, -304, -301, -299, -304, -309, -306, -299, -301, -309, -306, -301, -306, -311, -306, -301, -306, -306, -299, -299, -301, -296, -294, -296, -299, -299, -301, -301, -301, -299, -291, -282, -284, -289, -284, -287, -294, -296, -287, -272, -262, -257, -253, -260])
('ECG', 1747483376224195344, [-279, -294, -291, -284, -279, -279, -291, -330, -323, -21, 552, 912, 430, -691, -997, -352, -153, -343, -270, -204, -262, -238, -199, -226, -226, -184, -167, -160, -136, -119, -114, -102, -90, -82, -77, -77, -85, -94, -107, -128, -155, -177, -201, -231, -257, -277, -296, -313, -321, -328, -326, -323, -321, -313, -301, -299, -296, -287, -287, -294, -291, -277, -277, -282, -282, -284, -284, -279, -267, -272, -289, -289, -282])
('ECG', 1747483376785945256, [-282, -282, -296, -294, -262, -265, -304, -299, -267, -270, -282, -270, -257, -270, -287, -277, -262, -270, -272, -260, -265, -270, -260, -262, -277, -279, -255, -240, -248, -240, -218, -228, -262, -279, -272, -255, -253, -267, -291, -335, -231, 221, 768, 844, 29, -900, -693, -150, -260, -374, -245, -248, -301, -257, -233, -236, -214, -194, -187, -177, -155, -143, -148, -141, -116, -107, -102, -94, -97, -104, -124, -163, -189])
('ECG', 1747483377347664650, [-192, -218, -257, -279, -294, -309, -318, -326, -330, -333, -338, -338, -318, -296, -291, -291, -282, -277, -284, -291, -291, -287, -284, -284, -282, -282, -282, -277, -279, -284, -284, -294, -304, -296, -284, -284, -282, -277, -272, -277, -287, -287, -284, -289, -284, -279, -279, -270, -262, -274, -289, -284, -274, -279, -279, -270, -274, -282, -287, -287, -267, -245, -250, -265, -250, -240, -260, -279, -282, -270, -262, -272, -304])
('ECG', 1747483377909384046, [-360, -328, 9, 571, 897, 411, -659, -907, -296, -172, -403, -326, -233, -287, -272, -226, -231, -226, -204, -204, -197, -182, -177, -160, -133, -124, -116, -114, -111, -111, -121, -138, -155, -180, -204, -226, -245, -272, -299, -321, -333, -340, -345, -343, -340, -340, -335, -323, -316, -313, -313, -311, -304, -299, -301, -306, -306, -306, -309, -311, -309, -311, -313, -313, -311, -316, -321, -316, -313, -321, -323, -318, -311])
('ECG', 1747483378471128872, [-304, -296, -294, -299, -306, -301, -296, -299, -304, -301, -296, -289, -291, -299, -296, -291, -299, -309, -306, -289, -279, -277, -265, -253, -265, -289, -304, -301, -294, -294, -296, -313, -364, -333, 21, 601, 910, 328, -820, -995, -326, -218, -401, -291, -238, -301, -272, -231, -243, -236, -211, -201, -189, -172, -160, -150, -138, -124, -114, -109, -109, -116, -133, -145, -155, -175, -199, -226, -260, -289, -309, -326, -340])
('ECG', 1747483379032853352, [-347, -357, -360, -352, -343, -338, -330, -323, -313, -311, -313, -304, -294, -299, -299, -291, -291, -296, -296, -296, -296, -299, -304, -301, -299, -301, -301, -294, -291, -294, -294, -291, -291, -291, -289, -289, -289, -289, -287, -284, -284, -284, -282, -284, -287, -282, -279, -289, -296, -284, -260, -250, -257, -250, -245, -262, -274, -270, -267, -267, -272, -287, -333, -333, -24, 569, 968, 549, -576, -970, -347, -143, -391])
('ECG', 1747483379594572746, [-326, -216, -282, -282, -226, -231, -231, -206, -192, -184, -170, -155, -141, -126, -111, -97, -85, -85, -94, -104, -116, -141, -160, -172, -197, -238, -274, -294, -306, -326, -340, -338, -328, -333, -338, -328, -316, -311, -309, -301, -296, -296, -296, -291, -289, -291, -287, -282, -284, -284, -282, -284, -287, -289, -289, -289, -287, -287, -284, -282, -284, -289, -287, -282, -279, -279, -279, -277, -277, -279, -274, -272, -277])
('ECG', 1747483380156292140, [-277, -272, -270, -267, -270, -272, -267, -262, -267, -274, -277, -277, -260, -240, -243, -240, -233, -245, -272, -272, -257, -255, -260, -270, -311, -340, -131, 396, 873, 725, -262, -961, -513, -116, -333, -362, -226, -260, -284, -226, -218, -228, -209, -194, -187, -172, -160, -148, -128, -107, -99, -99, -90, -87, -97, -111, -124, -143, -175, -206, -228, -253, -274, -296, -313, -323, -333, -335, -333, -328, -323, -318, -311])
('ECG', 1747483380718011534, [-304, -301, -299, -296, -299, -294, -287, -284, -287, -287, -287, -289, -287, -289, -291, -291, -294, -294, -294, -294, -296, -299, -299, -294, -289, -291, -287, -284, -291, -291, -282, -282, -291, -284, -274, -277, -284, -284, -279, -279, -279, -277, -272, -272, -282, -287, -279, -260, -248, -253, -250, -240, -253, -277, -282, -272, -272, -274, -284, -333, -355, -107, 455, 910, 627, -484, -1075, -498, -155, -367, -333, -216, -272])
('ECG', 1747483381279761446, [-279, -216, -216, -233, -209, -189, -184, -170, -148, -138, -131, -121, -107, -94, -92, -99, -109, -124, -143, -170, -192, -206, -233, -265, -291, -306, -318, -333, -340, -340, -345, -343, -326, -311, -304, -304, -306, -304, -299, -291, -289, -287, -289, -289, -294, -296, -287, -277, -279, -287, -291, -287, -287, -291, -291, -287, -287, -289, -284, -279, -282, -282, -274, -272, -272, -274, -277, -274, -272, -272, -270, -267, -270])
('ECG', 1747483381841480842, [-272, -270, -265, -265, -267, -274, -270, -250, -240, -240, -236, -228, -236, -253, -262, -255, -245, -250, -260, -299, -338, -133, 408, 905, 764, -255, -1002, -532, -90, -313, -355, -211, -248, -277, -216, -209, -223, -201, -184, -177, -160, -145, -138, -121, -104, -97, -90, -82, -82, -87, -99, -119, -138, -160, -189, -221, -253, -279, -294, -306, -318, -328, -330, -328, -323, -321, -316, -306, -301, -299, -291, -287, -284])
('ECG', 1747483382403200236, [-284, -287, -287, -277, -279, -282, -277, -277, -284, -284, -279, -277, -279, -282, -279, -279, -282, -277, -274, -277, -279, -279, -277, -274, -282, -282, -274, -265, -265, -270, -270, -267, -265, -260, -262, -262, -257, -257, -257, -257, -260, -262, -260, -267, -274, -260, -243, -236, -233, -223, -218, -233, -255, -262, -260, -257, -253, -255, -304, -333, -90, 457, 897, 664, -355, -946, -435, -107, -338, -326, -194, -260, -289])
('ECG', 1747483382964919630, [-231, -223, -223, -189, -175, -175, -160, -145, -136, -119, -97, -87, -85, -82, -77, -82, -102, -126, -136, -150, -184, -216, -238, -260, -289, -304, -304, -309, -318, -318, -313, -309, -304, -299, -296, -296, -299, -289, -279, -282, -296, -299, -287, -274, -279, -289, -289, -289, -299, -309, -304, -289, -282, -289, -299, -296, -289, -284, -287, -299, -304, -299, -294, -291, -289, -289, -287, -287, -296, -301, -291, -287, -291])
('ECG', 1747483383526639024, [-287, -279, -284, -287, -277, -272, -287, -294, -272, -257, -265, -257, -240, -250, -277, -289, -287, -284, -277, -279, -321, -382, -260, 211, 751, 788, -85, -997, -717, -167, -291, -389, -248, -253, -304, -253, -231, -245, -231, -201, -194, -192, -175, -160, -150, -141, -126, -111, -102, -99, -109, -124, -136, -160, -182, -204, -240, -272, -296, -323, -345, -355, -360, -360, -362, -362, -350, -343, -345, -340, -328, -323, -328])
('ECG', 1747483384088358418, [-328, -323, -316, -313, -321, -326, -326, -330, -328, -321, -326, -333, -326, -321, -328, -333, -333, -333, -333, -330, -328, -328, -328, -326, -323, -326, -323, -323, -330, -328, -321, -318, -316, -316, -326, -330, -313, -291, -294, -291, -272, -279, -304, -321, -328, -323, -311, -313, -345, -408, -347, 82, 698, 905, 114, -1017, -948, -287, -299, -416, -265, -253, -316, -277, -245, -255, -248, -228, -216, -201, -189, -175, -158])
('ECG', 1747483384650077812, [-143, -136, -126, -116, -119, -128, -141, -158, -182, -206, -226, -257, -299, -328, -343, -362, -379, -384, -389, -391, -389, -382, -367, -360, -357, -350, -338, -340, -340, -335, -333, -328, -330, -333, -328, -323, -330, -333, -333, -338, -338, -333, -333, -338, -338, -335, -333, -328, -323, -326, -328, -323, -318, -318, -318, -318, -323, -328, -333, -326, -306, -294, -294, -279, -270, -289, -311, -318, -311, -306, -306, -321, -367])
('ECG', 1747483385211797208, [-382, -92, 506, 939, 581, -552, -1058, -445, -155, -403, -364, -243, -301, -309, -250, -250, -255, -233, -218, -211, -194, -177, -160, -145, -133, -124, -109, -102, -104, -116, -131, -145, -170, -201, -231, -265, -304, -333, -355, -364, -364, -372, -377, -372, -367, -360, -350, -343, -340, -335, -330, -328, -328, -326, -318, -316, -321, -316, -313, -316, -321, -321, -318, -318, -321, -321, -318, -321, -321, -321, -313, -313, -318])
('ECG', 1747483385773516602, [-316, -313, -311, -311, -311, -306, -306, -309, -304, -299, -306, -321, -311, -284, -274, -279, -270, -257, -272, -301, -304, -296, -294, -296, -304, -340, -374, -192, 326, 822, 727, -216, -985, -598, -148, -328, -382, -245, -270, -304, -250, -238, -250, -228, -206, -199, -189, -175, -160, -148, -133, -116, -104, -104, -104, -109, -119, -136, -155, -177, -204, -240, -274, -299, -321, -338, -347, -350, -352, -352, -347, -340, -335])
('ECG', 1747483386335235996, [-330, -323, -316, -311, -309, -306, -306, -304, -304, -301, -296, -299, -306, -301, -301, -304, -306, -304, -306, -309, -306, -304, -304, -304, -296, -294, -299, -299, -296, -294, -294, -294, -291, -289, -291, -291, -287, -282, -282, -287, -296, -299, -289, -270, -262, -262, -253, -248, -270, -289, -294, -289, -284, -287, -296, -338, -350, -102, 430, 839, 535, -484, -966, -437, -160, -369, -345, -236, -282, -291, -243, -240, -240])
('ECG', 1747483386896955390, [-216, -204, -199, -184, -167, -160, -143, -121, -114, -109, -102, -104, -114, -126, -143, -158, -177, -204, -238, -265, -291, -313, -326, -333, -340, -343, -340, -330, -326, -323, -313, -306, -306, -304, -301, -299, -299, -299, -296, -299, -301, -304, -301, -299, -301, -304, -301, -304, -306, -301, -301, -301, -304, -301, -299, -299, -301, -301, -299, -294, -291, -291, -291, -294, -294, -289, -284, -284, -289, -289, -287, -287, -287])
('ECG', 1747483387458674784, [-282, -282, -287, -294, -299, -284, -265, -262, -262, -245, -243, -267, -282, -284, -282, -279, -282, -294, -335, -326, -26, 518, 846, 406, -610, -907, -345, -180, -382, -318, -236, -291, -284, -233, -240, -236, -206, -201, -199, -180, -165, -158, -143, -126, -116, -111, -109, -111, -121, -133, -145, -165, -189, -211, -236, -265, -291, -306, -318, -328, -335, -338, -333, -330, -326, -318, -311, -304, -304, -304, -299, -296, -296])
('ECG', 1747483388020394178, [-299, -296, -289, -294, -299, -291, -289, -299, -301, -294, -294, -299, -296, -294, -294, -296, -294, -289, -291, -296, -291, -289, -289, -291, -289, -287, -287, -287, -284, -282, -282, -282, -282, -282, -282, -279, -279, -282, -287, -294, -294, -274, -255, -257, -255, -240, -248, -277, -289, -284, -282, -282, -282, -301, -355, -284, 119, 647, 790, 107, -829, -761, -209, -245, -382, -262, -240, -289, -250, -226, -238, -221, -201])
('ECG', 1747483388582113574, [-194, -182, -170, -160, -148, -133, -116, -104, -104, -104, -107, -119, -136, -153, -170, -192, -218, -248, -272, -291, -311, -323, -326, -333, -335, -330, -326, -318, -313, -309, -306, -301, -296, -291, -291, -291, -294, -294, -294, -296, -294, -294, -296, -299, -299, -296, -299, -301, -299, -296, -296, -296, -294, -289, -291, -294, -294, -291, -291, -289, -282, -277, -282, -282, -274, -274, -279, -277, -274, -272, -272, -272, -272])
('ECG', 1747483389143832968, [-272, -274, -279, -282, -284, -277, -255, -248, -248, -236, -236, -255, -272, -277, -270, -260, -265, -282, -326, -306, -2, 530, 832, 369, -625, -866, -304, -170, -367, -294, -221, -279, -267, -223, -228, -228, -206, -197, -187, -175, -163, -153, -138, -126, -116, -109, -107, -109, -121, -136, -153, -170, -184, -209, -240, -265, -284, -304, -316, -326, -333, -335, -330, -323, -321, -316, -306, -301, -301, -296, -294, -294, -299])
('ECG', 1747483389705552362, [-296, -291, -294, -296, -294, -291, -296, -301, -294, -291, -299, -304, -299, -294, -291, -291, -291, -291, -291, -289, -289, -289, -291, -294, -291, -287, -284, -284, -284, -287, -291, -287, -274, -277, -284, -282, -279, -282, -284, -282, -282, -282, -272, -257, -250, -243, -231, -240, -267, -284, -274, -267, -272, -277, -299, -345, -274, 116, 649, 807, 133, -815, -773, -226, -245, -382, -267, -240, -291, -260, -231, -240, -231])
('ECG', 1747483390267241238, [-211, -199, -192, -182, -170, -153, -138, -131, -121, -114, -114, -126, -136, -138, -158, -194, -214, -226, -257, -289, -304, -316, -335, -352, -355, -347, -343, -343, -338, -330, -323, -318, -313, -311, -309, -306, -313, -311, -299, -301, -309, -309, -309, -311, -309, -306, -311, -316, -313, -313, -313, -311, -309, -316, -313, -301, -301, -304, -304, -301, -306, -304, -296, -296, -304, -299, -296, -299, -289, -287, -294, -296, -289])
('ECG', 1747483390828960632, [-277, -267, -267, -260, -255, -270, -294, -299, -289, -284, -287, -301, -345, -374, -160, 377, 849, 644, -403, -1075, -579, -192, -367, -340, -226, -282, -291, -240, -238, -243, -218, -199, -194, -187, -170, -158, -148, -136, -121, -119, -124, -124, -131, -148, -165, -184, -211, -233, -260, -289, -311, -333, -350, -360, -364, -369, -367, -364, -360, -347, -335, -330, -328, -323, -321, -316, -311, -311, -313, -313, -318, -318, -316])
('ECG', 1747483391390649510, [-313, -318, -321, -321, -323, -323, -330, -335, -335, -338, -330, -311, -296, -296, -301, -296, -294, -301, -299, -299, -309, -318, -326, -323, -318, -296, -267, -262, -272, -260, -260, -289, -311, -301, -284, -289, -299, -309, -355, -277, 160, 734, 878, 109, -922, -824, -199, -240, -389, -248, -228, -291, -257, -226, -218, -209, -209, -189, -150, -141, -153, -138, -97, -85, -102, -97, -82, -94, -92, -75, -104, -172, -206])
('ECG', 1747483391952368904, [-216, -243, -277, -296, -301, -309, -323, -338, -347, -333, -306, -296, -299, -306, -313, -306, -294, -287, -272, -253, -253, -272, -294, -301, -289, -277, -265, -257, -272, -289, -289, -279, -277, -277, -267, -265, -291, -299, -279, -277, -277, -255, -250, -279, -284, -260, -270, -301, -294, -262, -253, -248, -231, -221, -243, -274, -279, -274, -272, -272, -267, -272, -318, -335, -94, 450, 902, 639, -418, -980, -435, -116, -345])
('ECG', 1747483392514088298, [-335, -228, -277, -267, -209, -221, -221, -194, -192, -182, -155, -138, -121, -104, -94, -94, -82, -55, -60, -87, -99, -114, -145, -167, -180, -214, -243, -262, -301, -343, -345, -333, -326, -311, -306, -318, -326, -316, -294, -282, -282, -279, -279, -289, -289, -287, -289, -282, -274, -272, -262, -270, -289, -294, -287, -284, -284, -274, -260, -267, -277, -277, -282, -291, -282, -265, -262, -265, -272, -287, -287, -262, -257])
('ECG', 1747483393075792434, [-279, -274, -238, -228, -238, -233, -233, -257, -272, -272, -265, -260, -260, -277, -323, -296, 26, 576, 871, 357, -674, -875, -296, -182, -367, -284, -228, -287, -260, -209, -216, -209, -189, -194, -189, -163, -153, -148, -104, -75, -92, -90, -70, -77, -97, -107, -128, -158, -182, -197, -226, -262, -282, -296, -328, -340, -326, -318, -318, -323, -326, -306, -299, -311, -296, -282, -291, -294, -277, -279, -296, -287, -277])
('ECG', 1747483393637496568, [-287, -287, -282, -282, -279, -291, -306, -289, -274, -289, -296, -284, -282, -284, -272, -279, -299, -289, -262, -267, -287, -274, -267, -284, -282, -270, -277, -289, -282, -265, -265, -267, -245, -231, -243, -267, -279, -282, -282, -277, -272, -284, -321, -364, -245, 216, 756, 793, -90, -1007, -739, -189, -294, -372, -228, -243, -296, -236, -206, -236, -221, -182, -184, -182, -150, -138, -141, -119, -94, -90, -94, -92, -85])
('ECG', 1747483394199215962, [-94, -128, -153, -165, -187, -218, -245, -270, -287, -296, -313, -335, -350, -352, -340, -333, -326, -301, -279, -287, -299, -291, -289, -294, -287, -277, -279, -279, -277, -291, -301, -294, -282, -287, -299, -291, -279, -289, -291, -287, -291, -291, -279, -274, -274, -282, -294, -294, -279, -274, -284, -287, -272, -250, -257, -282, -287, -279, -279, -279, -262, -240, -240, -248, -240, -231, -250, -274, -282, -270, -257, -260, -279])
('ECG', 1747483394760904840, [-323, -338, -102, 445, 893, 630, -437, -1024, -489, -148, -338, -306, -209, -274, -277, -223, -228, -226, -189, -167, -163, -163, -160, -141, -114, -102, -90, -70, -58, -60, -72, -102, -124, -131, -153, -194, -221, -231, -255, -287, -309, -318, -326, -333, -338, -323, -294, -294, -306, -294, -282, -282, -274, -277, -274, -260, -255, -267, -265, -255, -260, -262, -267, -267, -260, -260, -265, -265, -267, -270, -270, -277, -270])
('ECG', 1747483395322624234, [-248, -255, -277, -267, -248, -250, -257, -267, -270, -243, -228, -245, -255, -250, -250, -255, -250, -255, -267, -250, -228, -240, -253, -238, -243, -267, -274, -262, -240, -223, -211, -211, -211, -216, -236, -253, -257, -250, -240, -245, -257, -296, -330, -136, 374, 866, 800, -131, -910, -545, -114, -306, -364, -228, -248, -267, -209, -206, -228, -199, -170, -175, -180, -158, -128, -109, -102, -107, -102, -80, -85, -107, -99])
('ECG', 1747483395884343628, [-90, -121, -160, -172, -197, -238, -267, -279, -301, -330, -343, -313, -277, -291, -318, -306, -287, -294, -304, -309, -306, -277, -243, -238, -260, -277, -279, -279, -270, -270, -274, -255, -245, -260, -265, -265, -272, -277, -274, -270, -265, -255, -260, -272, -270, -260, -257, -255, -257, -260, -262, -274, -274, -260, -257, -260, -243, -228, -238, -257, -260, -257, -262, -267, -262, -255, -248, -226, -209, -226, -231, -221, -243])
('ECG', 1747483396446063022, [-274, -262, -238, -240, -245, -253, -309, -335, -85, 464, 922, 676, -384, -968, -450, -136, -343, -313, -192, -253, -265, -197, -192, -214, -214, -204, -172, -143, -145, -128, -97, -94, -87, -68, -72, -90, -90, -99, -121, -131, -143, -175, -209, -233, -262, -299, -318, -328, -338, -333, -330, -340, -335, -318, -321, -323, -311, -304, -304, -289, -274, -287, -304, -291, -277, -287, -291, -287, -287, -289, -291, -291, -274])
('ECG', 1747483397007751898, [-270, -294, -304, -296, -299, -301, -282, -272, -287, -294, -287, -287, -284, -282, -289, -279, -265, -272, -277, -272, -274, -274, -270, -274, -279, -270, -253, -240, -245, -240, -223, -231, -267, -279, -265, -265, -279, -282, -318, -369, -192, 330, 863, 824, -158, -1034, -654, -148, -318, -379, -240, -265, -301, -243, -223, -240, -223, -194, -189, -182, -155, -128, -119, -116, -111, -97, -85, -87, -94, -94, -111, -145, -167])
('ECG', 1747483397569471292, [-182, -223, -270, -291, -313, -343, -350, -343, -335, -350, -367, -360, -340, -335, -338, -330, -316, -301, -296, -289, -282, -296, -313, -299, -282, -291, -296, -291, -294, -294, -294, -296, -296, -299, -301, -299, -291, -287, -289, -291, -291, -296, -296, -282, -274, -284, -287, -277, -274, -272, -267, -272, -282, -272, -248, -238, -245, -233, -223, -250, -270, -265, -262, -260, -260, -284, -343, -301, 75, 676, 1019, 430, -756])
('ECG', 1747483398131160168, [-934, -255, -172, -394, -279, -199, -272, -257, -209, -216, -209, -180, -167, -165, -153, -138, -131, -119, -97, -77, -65, -63, -70, -77, -97, -121, -141, -165, -204, -245, -277, -299, -323, -343, -352, -357, -357, -350, -347, -340, -326, -323, -328, -323, -311, -306, -304, -296, -294, -296, -301, -296, -287, -289, -294, -294, -294, -301, -301, -294, -294, -299, -306, -299, -282, -277, -284, -287, -284, -284, -284, -289, -287])
('ECG', 1747483398692879564, [-267, -255, -265, -274, -270, -267, -272, -272, -274, -272, -253, -226, -218, -218, -221, -243, -267, -270, -253, -248, -265, -274, -309, -321, -60, 489, 912, 635, -391, -919, -411, -128, -345, -326, -214, -267, -274, -218, -223, -231, -194, -177, -182, -172, -150, -136, -128, -114, -92, -72, -68, -65, -65, -85, -107, -121, -141, -170, -209, -248, -272, -296, -318, -326, -326, -323, -321, -326, -318, -309, -311, -311, -291])
('ECG', 1747483399254588786, [-282, -289, -287, -279, -282, -284, -282, -282, -279, -274, -272, -265, -265, -274, -274, -267, -274, -284, -282, -279, -282, -272, -262, -270, -274, -270, -272, -272, -267, -265, -267, -272, -267, -260, -260, -262, -262, -265, -265, -265, -267, -262, -255, -248, -243, -233, -226, -236, -262, -272, -265, -260, -267, -270, -277, -326, -272, 111, 666, 907, 287, -759, -827, -223, -199, -374, -267, -231, -287, -248, -218, -238, -228])
('ECG', 1747483399816287834, [-199, -180, -172, -167, -150, -131, -124, -114, -92, -75, -75, -82, -87, -94, -114, -141, -167, -192, -223, -262, -289, -313, -333, -340, -343, -350, -350, -343, -335, -330, -328, -313, -304, -309, -309, -296, -289, -294, -296, -294, -291, -294, -299, -287, -282, -291, -296, -294, -296, -299, -296, -291, -296, -301, -294, -284, -289, -299, -289, -284, -294, -294, -284, -282, -291, -294, -289, -284, -284, -291, -294, -282, -265])
('ECG', 1747483400377986884, [-253, -260, -265, -248, -257, -287, -289, -279, -289, -291, -282, -313, -382, -274, 189, 754, 873, 58, -953, -800, -209, -267, -377, -248, -240, -284, -248, -231, -236, -214, -197, -197, -180, -155, -138, -126, -111, -97, -82, -72, -77, -85, -90, -94, -116, -148, -177, -204, -231, -270, -304, -326, -338, -343, -343, -343, -343, -343, -340, -330, -313, -299, -301, -301, -294, -291, -294, -287, -277, -279, -284, -282, -277])
('ECG', 1747483400939696104, [-279, -287, -291, -287, -282, -287, -287, -279, -282, -279, -274, -274, -277, -277, -274, -277, -279, -270, -262, -265, -270, -270, -265, -265, -262, -260, -260, -255, -262, -267, -267, -262, -245, -228, -233, -231, -216, -231, -260, -267, -255, -255, -265, -282, -328, -345, -85, 484, 951, 710, -352, -958, -445, -121, -345, -338, -216, -262, -274, -218, -221, -223, -199, -192, -187, -165, -143, -131, -124, -109, -92, -77, -68])
('ECG', 1747483401501384982, [-70, -80, -87, -97, -111, -136, -170, -204, -233, -267, -299, -309, -318, -330, -333, -328, -321, -316, -311, -299, -289, -291, -289, -282, -279, -282, -279, -274, -267, -270, -272, -272, -277, -279, -272, -270, -279, -282, -274, -272, -274, -272, -270, -277, -277, -272, -272, -274, -277, -272, -260, -255, -262, -265, -260, -260, -262, -262, -257, -260, -267, -265, -255, -255, -262, -257, -245, -248, -257, -257, -265, -279, -265])
('ECG', 1747483402063104376, [-238, -236, -238, -233, -221, -218, -243, -267, -255, -233, -231, -243, -270, -323, -260, 136, 688, 914, 304, -703, -756, -192, -199, -377, -262, -218, -279, -245, -209, -228, -221, -194, -184, -172, -153, -148, -133, -109, -102, -102, -82, -72, -80, -90, -99, -107, -119, -143, -172, -206, -243, -272, -289, -301, -313, -318, -323, -316, -304, -299, -301, -296, -291, -289, -282, -277, -282, -282, -277, -272, -265, -262, -267])
('ECG', 1747483402624793252, [-270, -272, -274, -277, -284, -282, -265, -262, -274, -272, -265, -265, -267, -267, -270, -267, -262, -260, -262, -267, -267, -260, -260, -262, -262, -267, -265, -257, -250, -253, -257, -255, -253, -257, -255, -240, -240, -248, -240, -243, -262, -267, -250, -238, -231, -221, -218, -221, -223, -245, -260, -253, -248, -250, -253, -279, -330, -262, 121, 656, 873, 245, -756, -766, -184, -206, -382, -257, -218, -284, -250, -206, -223])
('ECG', 1747483403186512646, [-223, -197, -189, -182, -167, -155, -145, -121, -99, -94, -90, -80, -87, -102, -104, -116, -143, -170, -194, -221, -250, -274, -291, -311, -326, -330, -330, -335, -333, -321, -309, -301, -296, -291, -287, -287, -289, -291, -289, -289, -294, -289, -279, -284, -294, -296, -296, -296, -291, -291, -296, -299, -299, -301, -296, -289, -289, -287, -277, -282, -299, -296, -279, -277, -277, -279, -279, -274, -272, -272, -267, -270, -277])
('ECG', 1747483403748201522, [-272, -262, -265, -270, -274, -274, -260, -240, -233, -231, -236, -257, -274, -272, -270, -270, -267, -272, -309, -355, -233, 218, 754, 832, -4, -953, -749, -197, -279, -369, -243, -245, -287, -245, -233, -240, -218, -204, -199, -180, -165, -153, -136, -121, -116, -109, -99, -92, -87, -102, -128, -145, -155, -184, -223, -250, -274, -306, -318, -326, -347, -355, -343, -343, -343, -328, -321, -321, -318, -313, -311, -304, -301])
('ECG', 1747483404309895486, [-301, -294, -289, -299, -301, -294, -299, -304, -301, -294, -291, -301, -304, -291, -291, -304, -299, -282, -279, -284, -282, -279, -282, -282, -277, -274, -277, -274, -267, -257, -255, -265, -267, -260, -267, -277, -265, -253, -250, -233, -204, -206, -243, -265, -270, -265, -260, -257, -267, -323, -343, -63, 508, 927, 625, -445, -980, -425, -126, -352, -323, -206, -257, -257, -201, -209, -221, -194, -177, -170, -158, -145, -133])
('ECG', 1747483404871609792, [-126, -114, -85, -63, -68, -75, -72, -77, -102, -121, -141, -167, -206, -245, -272, -291, -306, -321, -323, -321, -326, -323, -311, -309, -311, -294, -277, -279, -284, -279, -274, -279, -287, -282, -270, -272, -277, -274, -274, -279, -279, -277, -279, -287, -279, -272, -265, -265, -270, -272, -277, -274, -270, -267, -265, -265, -267, -257, -250, -250, -248, -250, -257, -257, -253, -255, -265, -255, -233, -223, -221, -206, -204])
('ECG', 1747483405433298670, [-233, -260, -267, -260, -248, -248, -265, -306, -318, -85, 440, 883, 678, -311, -912, -440, -116, -340, -345, -209, -248, -274, -223, -211, -216, -204, -189, -177, -165, -155, -138, -124, -111, -85, -70, -90, -94, -75, -77, -107, -121, -136, -180, -221, -238, -262, -287, -309, -326, -335, -343, -340, -330, -318, -306, -301, -309, -311, -306, -306, -294, -277, -272, -265, -270, -284, -301, -299, -265, -245, -274, -294, -289])
('ECG', 1747483405995018064, [-296, -291, -265, -267, -284, -274, -274, -294, -282, -265, -274, -270, -257, -260, -260, -257, -272, -284, -279, -265, -250, -255, -272, -287, -282, -257, -248, -245, -223, -199, -216, -265, -287, -274, -265, -265, -265, -289, -352, -345, -31, 537, 944, 559, -576, -1004, -377, -145, -386, -318, -209, -274, -257, -194, -216, -223, -197, -192, -187, -167, -148, -131, -124, -116, -92, -75, -82, -99, -111, -114, -128, -158, -177])
('ECG', 1747483406556706940, [-189, -204, -228, -277, -323, -345, -350, -347, -338, -323, -313, -321, -313, -301, -304, -306, -294, -299, -311, -289, -267, -274, -294, -296, -282, -289, -306, -299, -291, -294, -287, -296, -318, -301, -270, -277, -294, -296, -294, -284, -284, -296, -299, -291, -279, -272, -279, -287, -272, -265, -282, -294, -294, -282, -260, -243, -233, -226, -240, -262, -277, -289, -284, -267, -270, -309, -367, -238, 255, 815, 875, -19, -992])
('ECG', 1747483407118405990, [-712, -143, -284, -377, -214, -201, -245, -211, -209, -226, -194, -165, -167, -155, -126, -116, -114, -87, -63, -72, -92, -77, -65, -82, -97, -107, -136, -172, -201, -236, -262, -272, -284, -301, -321, -330, -328, -326, -323, -304, -291, -294, -284, -270, -279, -287, -274, -270, -272, -279, -291, -287, -272, -270, -274, -277, -277, -282, -279, -277, -279, -287, -284, -282, -282, -279, -279, -279, -270, -265, -277, -284, -289])
('ECG', 1747483407680115210, [-287, -272, -255, -253, -265, -270, -265, -267, -267, -250, -236, -228, -231, -231, -221, -226, -260, -274, -243, -233, -260, -289, -340, -313, 46, 615, 944, 472, -618, -900, -287, -150, -384, -304, -204, -267, -274, -216, -194, -192, -189, -184, -172, -158, -145, -138, -126, -97, -80, -87, -75, -55, -68, -94, -109, -133, -165, -192, -218, -250, -277, -296, -309, -313, -318, -321, -318, -313, -304, -296, -294, -289, -282])
('ECG', 1747483408241804086, [-279, -274, -272, -274, -274, -265, -262, -270, -272, -265, -265, -270, -267, -267, -272, -274, -272, -272, -272, -272, -274, -272, -267, -267, -267, -270, -267, -265, -265, -265, -265, -262, -260, -262, -262, -260, -260, -260, -255, -260, -262, -265, -265, -253, -233, -231, -231, -221, -233, -262, -274, -265, -255, -257, -274, -311, -340, -158, 355, 863, 778, -197, -983, -564, -111, -304, -350, -211, -240, -270, -216, -204, -216])
('ECG', 1747483408803492964, [-197, -180, -167, -148, -143, -143, -119, -97, -90, -75, -65, -77, -92, -97, -107, -128, -155, -182, -211, -238, -265, -289, -301, -309, -316, -323, -326, -323, -316, -309, -301, -296, -291, -287, -277, -272, -277, -277, -272, -274, -279, -277, -277, -284, -287, -282, -279, -282, -282, -282, -287, -287, -282, -279, -279, -277, -279, -274, -270, -272, -272, -270, -270, -270, -267, -265, -265, -265, -267, -265, -265, -270, -272])
('ECG', 1747483409365181840, [-270, -260, -245, -238, -238, -231, -231, -250, -272, -274, -267, -260, -257, -279, -335, -330, -12, 571, 963, 513, -649, -1007, -352, -145, -355, -274, -184, -248, -238, -192, -197, -197, -170, -158, -153, -136, -124, -114, -99, -82, -77, -72, -65, -72, -85, -99, -111, -131, -158, -184, -211, -236, -257, -277, -294, -304, -309, -306, -304, -301, -296, -287, -277, -272, -270, -267, -265, -265, -262, -257, -260, -260, -262])
('ECG', 1747483409926885976, [-262, -262, -262, -265, -267, -267, -267, -267, -262, -260, -262, -257, -255, -257, -260, -257, -255, -255, -255, -253, -248, -248, -253, -250, -248, -248, -248, -245, -248, -248, -253, -257, -257, -248, -231, -223, -221, -211, -214, -231, -248, -253, -245, -238, -243, -262, -313, -279, 85, 661, 966, 433, -647, -856, -245, -148, -362, -272, -197, -257, -240, -197, -204, -197, -175, -167, -158, -138, -126, -116, -104, -90, -77])
('ECG', 1747483410488590110, [-68, -60, -63, -72, -90, -109, -128, -150, -180, -209, -236, -260, -284, -296, -306, -313, -313, -306, -301, -296, -289, -287, -284, -279, -272, -270, -270, -267, -267, -270, -270, -260, -257, -262, -262, -260, -262, -262, -262, -267, -267, -262, -265, -270, -265, -260, -265, -265, -260, -253, -255, -262, -257, -250, -253, -257, -250, -245, -250, -255, -250, -253, -255, -253, -260, -260, -238, -218, -223, -221, -206, -223, -253])
('ECG', 1747483411050278986, [-260, -255, -253, -250, -255, -289, -330, -184, 294, 827, 871, -7, -941, -678, -136, -262, -352, -206, -216, -267, -216, -189, -206, -189, -163, -155, -148, -131, -119, -104, -90, -77, -72, -68, -70, -72, -85, -109, -128, -145, -167, -194, -223, -250, -267, -289, -306, -306, -306, -318, -318, -311, -306, -294, -284, -282, -279, -272, -270, -267, -267, -262, -260, -265, -272, -270, -270, -277, -272, -267, -277, -279, -272])
('ECG', 1747483411611967862, [-272, -272, -272, -272, -270, -267, -267, -262, -262, -265, -265, -255, -253, -260, -260, -255, -250, -250, -248, -248, -248, -253, -255, -257, -245, -228, -223, -221, -209, -209, -236, -253, -250, -245, -243, -243, -262, -318, -287, 72, 659, 980, 420, -722, -919, -260, -153, -350, -240, -175, -245, -221, -175, -187, -182, -158, -153, -143, -124, -109, -102, -90, -75, -65, -58, -55, -60, -70, -87, -107, -121, -143, -175])
('ECG', 1747483412173656740, [-206, -231, -257, -277, -289, -296, -299, -299, -296, -289, -282, -279, -272, -260, -260, -260, -253, -253, -255, -253, -250, -250, -253, -255, -253, -253, -257, -257, -253, -255, -262, -260, -257, -257, -260, -257, -257, -255, -253, -248, -245, -248, -248, -248, -248, -248, -248, -245, -243, -245, -245, -243, -243, -248, -255, -253, -236, -218, -218, -218, -206, -214, -240, -248, -243, -243, -243, -245, -274, -326, -204, 267, 805])
('ECG', 1747483412735345616, [883, 85, -844, -656, -121, -236, -355, -216, -211, -260, -209, -184, -201, -184, -163, -158, -148, -128, -116, -109, -94, -77, -68, -63, -65, -68, -77, -97, -116, -133, -155, -187, -216, -240, -265, -284, -294, -301, -304, -306, -301, -294, -289, -287, -277, -272, -272, -270, -265, -262, -262, -262, -260, -257, -260, -260, -260, -257, -262, -265, -265, -262, -260, -260, -262, -262, -270, -270, -253, -238, -245, -260, -257])
('ECG', 1747483413297034492, [-250, -245, -245, -245, -245, -250, -255, -248, -243, -248, -245, -236, -236, -245, -245, -238, -240, -255, -255, -236, -214, -211, -206, -199, -209, -238, -250, -243, -238, -238, -236, -262, -318, -214, 233, 776, 883, 102, -849, -691, -141, -236, -352, -218, -216, -267, -216, -192, -209, -189, -167, -165, -153, -133, -121, -114, -99, -85, -82, -77, -68, -70, -87, -104, -126, -145, -160, -182, -211, -240, -262, -279, -289])
('ECG', 1747483413858723368, [-299, -309, -309, -301, -296, -296, -291, -282, -272, -267, -265, -260, -260, -265, -262, -265, -265, -260, -262, -270, -267, -265, -270, -270, -265, -265, -270, -270, -267, -270, -270, -265, -262, -267, -267, -265, -262, -262, -262, -260, -257, -257, -257, -250, -248, -255, -257, -253, -255, -257, -257, -260, -255, -228, -214, -221, -216, -204, -221, -245, -253, -243, -238, -243, -253, -294, -330, -136, 389, 880, 739, -277, -1007])
('ECG', 1747483414420412244, [-540, -114, -301, -306, -177, -221, -243, -187, -184, -189, -163, -153, -148, -131, -116, -107, -94, -77, -68, -63, -58, -60, -70, -87, -102, -121, -145, -170, -192, -216, -240, -265, -279, -287, -296, -296, -291, -287, -284, -282, -274, -265, -262, -262, -260, -253, -248, -250, -250, -248, -250, -250, -250, -253, -255, -255, -255, -255, -260, -257, -253, -255, -260, -255, -253, -253, -253, -248, -245, -250, -250, -248, -245])
('ECG', 1747483414982101122, [-243, -243, -243, -243, -243, -240, -236, -233, -238, -238, -236, -240, -250, -245, -226, -209, -209, -204, -189, -201, -231, -240, -231, -226, -231, -236, -267, -311, -141, 364, 866, 812, -92, -888, -549, -97, -279, -347, -204, -226, -253, -177, -165, -197, -177, -155, -155, -141, -124, -114, -104, -90, -75, -65, -63, -68, -72, -80, -92, -111, -138, -163, -192, -226, -248, -255, -267, -284, -294, -291, -289, -291, -287])
('ECG', 1747483415543815430, [-279, -279, -291, -287, -260, -240, -243, -250, -243, -243, -253, -250, -245, -250, -255, -255, -250, -250, -257, -257, -253, -248, -250, -255, -253, -255, -257, -253, -250, -253, -250, -243, -245, -248, -238, -236, -243, -240, -238, -240, -238, -238, -240, -236, -231, -236, -236, -231, -238, -243, -236, -223, -209, -211, -214, -197, -189, -211, -233, -236, -226, -228, -236, -257, -309, -265, 99, 654, 924, 357, -700, -841, -238])
('ECG', 1747483416105499220, [-170, -347, -243, -189, -257, -236, -192, -197, -184, -163, -163, -155, -133, -119, -109, -92, -77, -75, -75, -72, -77, -90, -104, -116, -128, -158, -184, -204, -223, -250, -279, -296, -296, -301, -309, -306, -299, -296, -294, -287, -274, -267, -267, -270, -270, -265, -260, -262, -262, -257, -260, -262, -265, -272, -274, -270, -270, -267, -270, -270, -267, -265, -262, -262, -267, -267, -260, -255, -260, -265, -265, -260, -250])
('ECG', 1747483416667183010, [-250, -253, -250, -250, -248, -248, -245, -243, -245, -243, -238, -238, -228, -209, -206, -209, -197, -201, -228, -243, -238, -233, -231, -233, -265, -321, -226, 223, 788, 912, 94, -919, -747, -143, -214, -333, -199, -194, -243, -194, -167, -182, -167, -148, -141, -131, -114, -99, -90, -75, -60, -55, -53, -55, -58, -70, -87, -109, -133, -155, -175, -201, -226, -245, -257, -274, -287, -287, -284, -284, -282, -272, -267])
('ECG', 1747483417228887144, [-262, -255, -250, -248, -245, -245, -240, -236, -236, -233, -233, -238, -238, -243, -245, -240, -243, -248, -245, -240, -248, -245, -236, -238, -243, -240, -236, -236, -236, -236, -233, -231, -236, -236, -233, -231, -233, -228, -226, -226, -228, -231, -231, -236, -240, -228, -206, -199, -197, -187, -182, -209, -236, -233, -221, -221, -228, -243, -291, -289, 26, 603, 970, 559, -508, -880, -301, -114, -345, -284, -182, -248, -245])
('ECG', 1747483417790576020, [-187, -187, -189, -167, -155, -150, -136, -119, -102, -92, -80, -68, -58, -58, -65, -72, -80, -94, -116, -143, -167, -197, -228, -253, -270, -284, -294, -299, -299, -299, -296, -291, -284, -279, -274, -267, -262, -262, -262, -257, -257, -257, -255, -255, -255, -250, -253, -253, -253, -255, -255, -255, -257, -257, -255, -253, -255, -257, -255, -253, -250, -253, -253, -253, -253, -245, -236, -238, -243, -243, -240, -240, -236])
('ECG', 1747483418352264896, [-233, -233, -236, -238, -233, -228, -238, -228, -201, -199, -206, -194, -189, -211, -236, -240, -231, -226, -233, -250, -294, -284, 17, 574, 934, 532, -520, -883, -309, -121, -345, -282, -184, -248, -245, -192, -189, -192, -172, -163, -150, -128, -126, -121, -97, -80, -77, -70, -63, -68, -77, -90, -109, -126, -148, -177, -209, -233, -250, -267, -291, -309, -311, -306, -304, -299, -296, -294, -282, -277, -274, -265, -265])
('ECG', 1747483418913953774, [-270, -270, -260, -262, -267, -262, -257, -260, -262, -257, -260, -267, -270, -267, -270, -270, -265, -260, -260, -262, -265, -262, -262, -265, -260, -257, -260, -253, -248, -250, -248, -253, -260, -250, -245, -255, -250, -245, -250, -243, -236, -248, -257, -240, -216, -214, -218, -206, -211, -236, -240, -236, -245, -248, -245, -274, -330, -216, 250, 810, 895, 34, -963, -744, -150, -233, -330, -201, -206, -248, -204, -184, -194])
('ECG', 1747483419475632478, [-175, -153, -153, -148, -126, -104, -99, -97, -87, -75, -68, -60, -63, -92, -121, -133, -148, -170, -192, -221, -248, -267, -287, -304, -316, -328, -321, -309, -306, -304, -294, -287, -282, -282, -279, -274, -274, -274, -270, -267, -274, -274, -274, -279, -274, -265, -272, -279, -277, -274, -274, -274, -272, -272, -272, -274, -274, -274, -270, -267, -270, -270, -267, -262, -262, -262, -262, -262, -262, -260, -255, -253, -260])
('ECG', 1747483420037316268, [-265, -257, -245, -236, -228, -221, -211, -214, -233, -245, -255, -255, -245, -245, -267, -321, -309, 17, 618, 1007, 530, -649, -995, -328, -141, -364, -272, -175, -248, -245, -197, -201, -199, -172, -165, -163, -143, -121, -107, -92, -80, -68, -60, -63, -70, -80, -92, -107, -131, -158, -184, -211, -243, -274, -296, -309, -316, -328, -330, -323, -316, -309, -306, -301, -289, -282, -279, -274, -274, -272, -267, -270, -274])
('ECG', 1747483420599000058, [-267, -257, -260, -267, -270, -270, -267, -267, -267, -265, -260, -262, -265, -260, -262, -267, -260, -255, -257, -257, -255, -250, -250, -255, -255, -245, -245, -250, -245, -236, -238, -238, -231, -233, -238, -236, -238, -238, -228, -214, -206, -204, -197, -199, -218, -233, -233, -231, -228, -231, -250, -304, -287, 60, 661, 1039, 554, -608, -931, -277, -116, -360, -274, -180, -245, -233, -180, -189, -187, -160, -153, -145, -128])
('ECG', 1747483421160683848, [-114, -102, -90, -75, -63, -53, -43, -43, -60, -75, -90, -111, -138, -165, -197, -228, -255, -267, -279, -294, -296, -287, -284, -287, -279, -274, -270, -265, -262, -257, -253, -248, -245, -243, -243, -243, -240, -238, -243, -248, -250, -248, -248, -250, -253, -250, -253, -255, -253, -248, -243, -245, -250, -248, -243, -243, -243, -240, -238, -240, -238, -238, -240, -238, -228, -221, -226, -231, -231, -228, -228, -226, -226])
('ECG', 1747483421722398154, [-223, -216, -216, -216, -214, -218, -221, -216, -211, -221, -231, -223, -209, -197, -187, -184, -180, -187, -211, -228, -223, -218, -218, -218, -248, -311, -218, 228, 795, 966, 248, -766, -710, -136, -204, -362, -228, -201, -262, -221, -187, -201, -187, -165, -163, -153, -131, -116, -107, -92, -77, -68, -60, -58, -63, -72, -87, -107, -126, -145, -172, -201, -228, -253, -272, -282, -291, -294, -296, -296, -291, -287, -284])
('ECG', 1747483422284081946, [-284, -277, -272, -267, -250, -240, -240, -245, -245, -238, -238, -245, -243, -240, -245, -250, -248, -245, -250, -253, -250, -248, -250, -253, -250, -250, -253, -245, -240, -245, -248, -245, -240, -236, -231, -231, -231, -233, -236, -233, -228, -231, -233, -231, -231, -231, -231, -233, -240, -240, -236, -218, -209, -214, -209, -197, -204, -233, -250, -243, -233, -238, -248, -267, -318, -231, 201, 759, 917, 165, -846, -742, -148])
('ECG', 1747483422845765736, [-211, -355, -218, -199, -262, -223, -192, -206, -197, -170, -155, -153, -145, -128, -109, -92, -85, -77, -68, -63, -68, -80, -99, -121, -143, -165, -192, -216, -243, -267, -291, -304, -313, -321, -326, -326, -316, -304, -301, -299, -289, -279, -282, -284, -279, -270, -272, -274, -272, -267, -267, -267, -272, -277, -279, -274, -272, -277, -284, -277, -270, -272, -270, -260, -255, -260, -265, -262, -257, -253, -255, -253, -250])
('ECG', 1747483423407449526, [-255, -255, -245, -245, -253, -250, -243, -245, -245, -245, -240, -240, -255, -257, -236, -218, -223, -223, -209, -209, -233, -253, -253, -243, -240, -245, -260, -318, -318, 2, 591, 975, 537, -610, -987, -352, -141, -352, -272, -189, -260, -243, -189, -204, -201, -170, -165, -165, -143, -126, -114, -97, -85, -75, -65, -65, -68, -68, -85, -109, -128, -153, -182, -214, -245, -270, -287, -301, -311, -318, -321, -321, -318])
('ECG', 1747483423969153660, [-306, -296, -296, -289, -279, -277, -279, -272, -260, -260, -265, -257, -257, -265, -265, -260, -262, -267, -270, -270, -272, -270, -265, -262, -265, -262, -262, -260, -257, -255, -253, -245, -248, -255, -255, -245, -245, -250, -245, -240, -243, -243, -236, -233, -240, -245, -243, -240, -240, -240, -240, -236, -223, -211, -211, -204, -201, -218, -238, -243, -238, -240, -240, -245, -287, -330, -148, 379, 897, 832, -141, -968, -569])
('ECG', 1747483424530842536, [-92, -289, -345, -194, -226, -265, -206, -194, -209, -182, -163, -163, -145, -128, -121, -109, -90, -75, -65, -58, -58, -63, -77, -97, -116, -136, -165, -197, -228, -255, -277, -299, -311, -316, -318, -321, -311, -306, -304, -299, -289, -284, -277, -267, -265, -265, -265, -265, -260, -260, -265, -262, -262, -265, -265, -260, -260, -265, -270, -265, -260, -260, -262, -260, -255, -248, -250, -248, -245, -245, -248, -243, -238])
('ECG', 1747483425092531412, [-240, -243, -236, -236, -238, -238, -233, -228, -231, -233, -231, -231, -233, -231, -226, -228, -228, -226, -226, -228, -236, -243, -238, -218, -206, -199, -194, -194, -211, -236, -238, -228, -228, -231, -233, -265, -323, -182, 321, 868, 912, 48, -868, -615, -97, -253, -355, -204, -216, -267, -214, -192, -206, -182, -165, -167, -148, -126, -119, -107, -90, -75, -68, -60, -58, -60, -72, -90, -109, -131, -155, -180, -209])
('ECG', 1747483425654215204, [-240, -270, -287, -294, -301, -306, -306, -301, -299, -299, -289, -277, -272, -272, -267, -257, -255, -260, -260, -253, -253, -255, -255, -255, -260, -257, -257, -255, -253, -255, -257, -255, -253, -253, -250, -250, -255, -255, -250, -245, -243, -240, -238, -238, -240, -243, -240, -236, -236, -238, -233, -231, -233, -236, -236, -233, -236, -233, -228, -228, -233, -231, -228, -231, -236, -238, -236, -218, -211, -211, -199, -194, -214])
('ECG', 1747483426215909166, [-236, -240, -236, -236, -238, -243, -277, -323, -155, 355, 861, 817, -82, -883, -545, -94, -274, -340, -204, -226, -257, -201, -194, -206, -184, -167, -163, -148, -133, -121, -107, -92, -77, -70, -65, -63, -65, -75, -90, -107, -128, -155, -187, -221, -248, -272, -291, -299, -304, -311, -313, -309, -299, -296, -296, -289, -279, -274, -274, -270, -265, -267, -267, -260, -260, -265, -265, -265, -267, -267, -262, -255, -260])
('ECG', 1747483426777598042, [-267, -262, -260, -262, -257, -255, -255, -255, -257, -250, -240, -248, -255, -243, -236, -245, -250, -243, -240, -240, -240, -238, -240, -243, -240, -238, -238, -243, -243, -236, -233, -238, -240, -245, -255, -245, -223, -214, -216, -211, -204, -218, -245, -250, -243, -243, -240, -248, -299, -328, -109, 411, 875, 717, -274, -961, -501, -109, -313, -328, -197, -236, -262, -216, -206, -209, -187, -170, -165, -153, -138, -128, -114])
('ECG', 1747483427339266574, [-97, -87, -82, -75, -75, -77, -72, -90, -126, -153, -170, -199, -233, -260, -282, -299, -313, -318, -321, -323, -318, -311, -309, -306, -294, -284, -282, -277, -272, -274, -274, -270, -272, -274, -272, -270, -270, -270, -274, -274, -272, -267, -265, -270, -277, -272, -267, -270, -272, -267, -262, -265, -265, -257, -253, -250, -253, -260, -265, -257, -250, -250, -253, -250, -248, -250, -253, -245, -250, -260, -253, -253, -255])
('ECG', 1747483427900945276, [-240, -216, -218, -226, -216, -218, -238, -250, -253, -255, -255, -243, -262, -330, -282, 131, 732, 992, 328, -815, -900, -240, -194, -369, -248, -206, -267, -228, -197, -214, -197, -167, -167, -158, -136, -126, -116, -99, -85, -75, -68, -63, -68, -75, -92, -116, -138, -160, -192, -223, -253, -279, -301, -313, -323, -330, -335, -326, -318, -313, -304, -299, -296, -294, -287, -274, -267, -267, -265, -267, -267, -260, -255])
('ECG', 1747483428462634152, [-257, -262, -265, -265, -265, -260, -260, -262, -257, -257, -257, -257, -255, -250, -250, -255, -253, -248, -248, -250, -248, -245, -243, -240, -238, -240, -245, -245, -240, -236, -238, -238, -240, -243, -245, -243, -228, -211, -211, -211, -197, -204, -236, -245, -236, -233, -236, -240, -270, -330, -245, 197, 783, 985, 267, -810, -793, -167, -189, -362, -231, -197, -260, -218, -180, -197, -187, -160, -153, -143, -126, -111, -102])
('ECG', 1747483429024323030, [-85, -70, -55, -43, -43, -48, -51, -63, -90, -109, -131, -165, -204, -236, -262, -279, -294, -304, -306, -309, -309, -299, -289, -284, -279, -267, -262, -262, -255, -250, -250, -253, -253, -248, -243, -245, -250, -245, -248, -250, -250, -250, -248, -248, -248, -248, -248, -248, -243, -238, -236, -236, -236, -236, -233, -236, -236, -231, -228, -226, -221, -216, -221, -223, -221, -221, -221, -223, -223, -218, -218, -221, -221])
