('ECG', 1751792958407644000, [-320, 543, 1714, 2119, 2056, 2175, 2194, 2073, 2037, 1995, 1891, 1801, 1743, 1673, 1593, 1530, 1469, 1418, 1394, 1360, 1304, 1275, 1261, 1234, 1222, 1210, 1161, 1105, 1096, 1096, 1064, 1045, 1037, 996, 940, 1050, 1515, 2126, 2289, 1476, 475, 608, 1122, 1008, 873, 972, 979, 945, 948, 938, 936, 955, 948, 950, 965, 948, 943, 977, 991, 979, 982, 984, 965, 938, 904, 851, 805, 766, 696, 601, 552, 538, 502])
('ECG', 1751792958969241322, [463, 443, 438, 419, 388, 375, 371, 356, 339, 332, 315, 283, 266, 249, 230, 225, 198, 155, 160, 167, 126, 104, 101, 65, 33, 26, 12, -4, -24, -50, -67, -84, -118, -147, -164, -172, -177, -201, -240, -254, -254, -269, -283, -300, -334, -373, -392, -388, -404, -451, -460, -448, -477, -518, -526, -526, -565, -606, -613, -625, -647, -649, -647, -662, -691, -727, -749, -778, -812, -819, -829, -870, -926])
('ECG', 1751792959530838644, [-984, -931, -557, 82, 431, -252, -1401, -1472, -916, -970, -1147, -1028, -1023, -1110, -1076, -1057, -1088, -1079, -1091, -1127, -1108, -1084, -1086, -1074, -1074, -1098, -1108, -1088, -1084, -1127, -1171, -1181, -1205, -1282, -1360, -1396, -1442, -1510, -1552, -1564, -1586, -1603, -1590, -1581, -1600, -1627, -1629, -1619, -1629, -1646, -1653, -1653, -1634, -1615, -1636, -1658, -1641, -1646, -1668, -1661, -1658, -1683, -1685, -1670, -1685, -1697, -1687, -1685, -1678, -1678, -1702, -1709, -1678])
('ECG', 1751792960092415622, [-1670, -1683, -1670, -1661, -1663, -1661, -1656, -1656, -1658, -1663, -1658, -1646, -1636, -1617, -1605, -1627, -1644, -1619, -1610, -1632, -1627, -1600, -1590, -1603, -1607, -1595, -1586, -1588, -1598, -1600, -1603, -1600, -1588, -1573, -1559, -1552, -1561, -1564, -1547, -1554, -1576, -1583, -1583, -1576, -1556, -1554, -1571, -1607, -1653, -1515, -1016, -383, -218, -1059, -2020, -1811, -1333, -1498, -1600, -1464, -1472, -1513, -1457, -1440, -1467, -1440, -1409, -1394, -1362, -1355, -1360, -1326, -1285])
('ECG', 1751792960653977340, [-1280, -1287, -1261, -1236, -1261, -1280, -1275, -1280, -1319, -1367, -1411, -1457, -1486, -1489, -1489, -1498, -1503, -1496, -1489, -1479, -1474, -1464, -1452, -1442, -1425, -1416, -1418, -1406, -1392, -1384, -1362, -1355, -1375, -1370, -1345, -1348, -1355, -1341, -1324, -1321, -1324, -1321, -1297, -1290, -1319, -1326, -1285, -1265, -1287, -1297, -1287, -1282, -1275, -1270, -1263, -1258, -1261, -1253, -1234, -1239, -1246, -1222, -1214, -1236, -1239, -1231, -1227, -1205, -1183, -1190, -1217, -1217, -1188])
('ECG', 1751792961215569576, [-1171, -1171, -1168, -1166, -1154, -1134, -1147, -1176, -1176, -1149, -1156, -1176, -1149, -1125, -1171, -1253, -1166, -710, -65, 210, -502, -1556, -1501, -950, -1052, -1217, -1071, -1040, -1108, -1067, -1037, -1059, -1030, -996, -1001, -987, -948, -926, -926, -916, -897, -880, -868, -853, -841, -856, -890, -916, -955, -1011, -1045, -1074, -1113, -1142, -1147, -1147, -1151, -1151, -1132, -1113, -1113, -1110, -1098, -1086, -1081, -1074, -1059, -1057, -1050, -1042, -1042, -1030, -1016])
('ECG', 1751792961777136380, [-1023, -1037, -1047, -1052, -1042, -1023, -1016, -1016, -1001, -1006, -1020, -1020, -1013, -1018, -1025, -1016, -1006, -999, -987, -996, -1016, -994, -982, -1011, -1013, -996, -1004, -1004, -979, -977, -991, -989, -989, -989, -987, -989, -982, -979, -989, -984, -984, -1001, -987, -962, -965, -970, -972, -979, -953, -933, -972, -987, -960, -972, -994, -974, -967, -991, -1045, -1062, -802, -206, 332, 104, -984, -1535, -1018, -776, -1016, -1001, -902, -943, -945])
('ECG', 1751792962338723530, [-906, -921, -926, -894, -868, -848, -839, -831, -807, -780, -771, -754, -722, -717, -727, -727, -727, -739, -763, -814, -877, -904, -902, -940, -1030, -1052, -999, -984, -989, -974, -979, -987, -960, -945, -960, -945, -909, -890, -887, -921, -938, -899, -885, -892, -860, -843, -890, -904, -858, -853, -877, -856, -843, -880, -885, -856, -856, -860, -839, -831, -829, -812, -831, -863, -826, -795, -822, -834, -807, -790, -797, -795, -790])
('ECG', 1751792962900300506, [-795, -800, -793, -783, -785, -788, -788, -795, -795, -800, -807, -778, -785, -834, -817, -773, -785, -807, -795, -790, -788, -763, -759, -788, -814, -819, -826, -829, -822, -839, -880, -899, -710, -160, 460, 455, -557, -1387, -987, -596, -851, -892, -725, -776, -817, -734, -739, -790, -756, -708, -681, -652, -642, -635, -618, -611, -608, -594, -574, -560, -562, -579, -586, -611, -681, -737, -776, -817, -841, -853, -865, -880, -892])
('ECG', 1751792963461877484, [-887, -875, -870, -873, -863, -841, -841, -846, -826, -817, -819, -805, -797, -807, -812, -795, -788, -800, -795, -797, -807, -788, -776, -776, -778, -793, -780, -763, -771, -778, -773, -759, -754, -761, -761, -768, -768, -763, -768, -759, -744, -742, -749, -749, -737, -751, -766, -746, -746, -759, -756, -754, -751, -759, -773, -771, -763, -761, -756, -744, -744, -756, -729, -703, -737, -776, -771, -761, -768, -783, -776, -780, -836])
('ECG', 1751792964023464632, [-870, -645, -77, 489, 402, -611, -1345, -928, -591, -822, -829, -717, -783, -793, -727, -725, -729, -691, -669, -679, -666, -635, -620, -594, -569, -567, -565, -552, -535, -535, -550, -569, -603, -652, -722, -783, -797, -814, -853, -870, -870, -870, -870, -870, -853, -839, -843, -848, -836, -826, -839, -839, -809, -785, -773, -778, -778, -766, -776, -773, -759, -771, -776, -773, -783, -783, -768, -756, -756, -768, -761, -751, -754])
('ECG', 1751792964585061954, [-744, -739, -756, -763, -751, -742, -742, -737, -742, -751, -737, -720, -729, -734, -722, -710, -708, -700, -696, -688, -693, -703, -681, -659, -679, -681, -664, -676, -688, -686, -696, -693, -688, -705, -725, -754, -761, -492, 140, 696, 392, -783, -1302, -725, -511, -766, -691, -589, -681, -669, -599, -603, -608, -599, -589, -567, -540, -509, -489, -487, -475, -453, -443, -451, -441, -431, -451, -485, -533, -586, -632, -696, -739])
('ECG', 1751792965146623674, [-759, -783, -800, -800, -785, -773, -778, -766, -751, -763, -761, -744, -732, -732, -737, -720, -705, -703, -688, -679, -686, -705, -712, -696, -691, -700, -698, -686, -679, -688, -691, -676, -681, -696, -691, -688, -688, -679, -664, -671, -686, -671, -654, -659, -666, -666, -659, -654, -657, -645, -647, -662, -659, -654, -649, -645, -647, -649, -642, -637, -637, -618, -613, -645, -654, -649, -659, -662, -664, -666, -688, -742, -635])
('ECG', 1751792965708195564, [-162, 492, 734, -89, -1178, -1037, -472, -596, -729, -579, -589, -664, -603, -574, -603, -577, -543, -538, -526, -509, -485, -468, -458, -441, -434, -419, -402, -397, -409, -441, -480, -523, -577, -623, -671, -722, -746, -756, -761, -763, -763, -756, -761, -756, -739, -722, -715, -720, -725, -717, -708, -691, -681, -679, -674, -686, -693, -693, -688, -671, -669, -679, -676, -674, -666, -664, -666, -659, -652, -652, -659, -657, -647])
('ECG', 1751792966269777628, [-652, -649, -628, -620, -623, -623, -637, -642, -632, -647, -654, -637, -647, -640, -603, -618, -640, -608, -594, -615, -618, -606, -586, -599, -630, -620, -611, -623, -615, -591, -572, -594, -686, -693, -317, 400, 870, 303, -911, -1139, -543, -531, -751, -601, -526, -601, -557, -499, -533, -560, -526, -489, -480, -463, -441, -434, -409, -385, -373, -349, -344, -349, -351, -380, -421, -468, -514, -567, -618, -652, -683, -722, -746])
('ECG', 1751792966831359690, [-732, -717, -715, -720, -739, -720, -700, -729, -715, -674, -674, -664, -666, -688, -662, -649, -671, -657, -642, -671, -676, -645, -625, -642, -664, -654, -628, -630, -659, -676, -671, -649, -625, -620, -637, -647, -635, -620, -628, -640, -630, -642, -669, -645, -611, -606, -606, -613, -615, -615, -625, -623, -608, -601, -591, -591, -606, -591, -569, -586, -608, -611, -611, -620, -628, -620, -637, -700, -657, -281, 341, 756, 264])
('ECG', 1751792967392931582, [-890, -1156, -557, -477, -710, -620, -555, -635, -603, -555, -596, -591, -533, -526, -545, -511, -460, -455, -451, -417, -392, -392, -400, -407, -409, -404, -421, -480, -543, -577, -608, -657, -696, -708, -739, -761, -737, -727, -722, -681, -686, -722, -691, -659, -683, -681, -657, -666, -674, -664, -674, -688, -683, -674, -691, -715, -708, -691, -681, -681, -705, -712, -686, -669, -662, -659, -681, -698, -676, -649, -652, -662, -669])
('ECG', 1751792967954493300, [-654, -628, -628, -628, -618, -628, -630, -618, -618, -635, -625, -596, -599, -594, -548, -540, -591, -599, -557, -543, -572, -606, -599, -579, -589, -584, -574, -623, -696, -531, 26, 613, 620, -278, -1115, -826, -402, -567, -611, -489, -555, -594, -523, -521, -511, -460, -465, -460, -412, -397, -402, -375, -339, -334, -339, -322, -312, -329, -346, -368, -407, -451, -516, -586, -630, -664, -703, -722, -722, -742, -763, -756, -751])
('ECG', 1751792968516085536, [-766, -759, -739, -759, -780, -766, -754, -759, -763, -771, -768, -759, -766, -776, -778, -780, -783, -776, -771, -785, -785, -759, -759, -778, -754, -746, -788, -788, -766, -778, -768, -734, -742, -773, -773, -759, -756, -749, -746, -766, -771, -737, -717, -727, -722, -710, -715, -705, -698, -722, -722, -691, -703, -737, -732, -717, -739, -802, -790, -514, 70, 642, 421, -737, -1307, -710, -465, -805, -790, -625, -693, -734, -659])
('ECG', 1751792969077657426, [-645, -659, -630, -599, -584, -555, -526, -511, -482, -438, -426, -404, -344, -327, -361, -368, -363, -378, -409, -446, -468, -489, -509, -516, -538, -565, -555, -518, -487, -509, -526, -480, -451, -482, -502, -475, -458, -468, -455, -426, -429, -468, -494, -472, -451, -468, -458, -436, -446, -470, -468, -438, -451, -499, -492, -475, -492, -489, -482, -499, -494, -463, -475, -509, -494, -482, -499, -494, -494, -523, -509, -485, -509])
('ECG', 1751792969639239490, [-526, -511, -494, -492, -492, -482, -494, -533, -533, -514, -555, -574, -506, -487, -606, -603, -194, 455, 814, 261, -773, -885, -371, -388, -552, -443, -426, -497, -412, -337, -400, -400, -276, -181, -203, -266, -232, -106, -26, -4, 70, 184, 257, 295, 346, 361, 295, 223, 177, 143, 109, 72, 87, 130, 138, 116, 121, 157, 160, 143, 152, 157, 160, 164, 150, 135, 104, 31, 55, 101, -16, -77, 9])
('ECG', 1751792970200801208, [21, -29, -84, -143, -128, -109, -179, -240, -225, -227, -276, -300, -300, -312, -327, -356, -385, -373, -375, -446, -468, -414, -477, -565, -521, -497, -548, -562, -565, -601, -637, -666, -696, -703, -700, -720, -756, -783, -652, -208, 337, 392, -475, -1324, -1045, -613, -795, -873, -725, -744, -802, -756, -715, -708, -705, -720, -717, -696, -688, -691, -666, -630, -625, -630, -623, -625, -635, -649, -669, -698, -732, -790, -870])
('ECG', 1751792970762388356, [-923, -940, -955, -957, -955, -970, -965, -945, -960, -965, -945, -957, -957, -923, -921, -931, -923, -916, -909, -909, -923, -933, -936, -936, -914, -906, -926, -933, -911, -894, -906, -911, -904, -894, -885, -892, -892, -875, -856, -846, -851, -839, -812, -826, -860, -868, -843, -824, -843, -853, -856, -909, -899, -555, 97, 567, 94, -1096, -1409, -797, -662, -853, -766, -712, -778, -742, -688, -693, -676, -640, -623, -611, -594])
('ECG', 1751792971323955162, [-572, -562, -535, -504, -502, -494, -482, -492, -499, -506, -538, -594, -647, -686, -739, -793, -802, -802, -826, -846, -836, -822, -826, -814, -795, -793, -780, -761, -756, -763, -754, -739, -739, -746, -749, -739, -732, -742, -749, -734, -729, -729, -722, -712, -717, -729, -712, -703, -725, -720, -696, -688, -686, -686, -671, -662, -681, -700, -698, -674, -664, -681, -674, -686, -768, -744, -358, 305, 763, 242, -984, -1239, -584])
('ECG', 1751792971885547398, [-502, -737, -632, -565, -635, -608, -572, -586, -567, -528, -504, -492, -470, -451, -455, -441, -417, -395, -371, -375, -385, -385, -397, -441, -506, -562, -599, -647, -676, -693, -715, -722, -722, -732, -729, -708, -691, -708, -715, -700, -688, -664, -645, -664, -676, -659, -662, -674, -666, -657, -662, -654, -635, -640, -642, -625, -630, -654, -654, -635, -632, -640, -640, -640, -630, -608, -596, -584, -582, -591, -606, -625, -625])
('ECG', 1751792972447109116, [-611, -611, -603, -606, -659, -729, -599, -67, 630, 851, -65, -1190, -955, -375, -572, -691, -514, -528, -594, -533, -506, -526, -502, -472, -470, -468, -443, -400, -380, -375, -358, -354, -358, -346, -329, -339, -380, -426, -463, -509, -562, -603, -630, -659, -674, -662, -657, -669, -671, -659, -632, -615, -628, -630, -613, -606, -606, -589, -574, -594, -613, -591, -565, -562, -565, -569, -577, -579, -574, -574, -569, -560, -552])
('ECG', 1751792973008686092, [-545, -548, -550, -545, -548, -552, -550, -535, -518, -514, -521, -521, -531, -552, -548, -526, -523, -535, -557, -618, -662, -455, 106, 717, 703, -344, -1164, -715, -322, -565, -582, -455, -518, -533, -453, -453, -485, -460, -424, -424, -417, -385, -371, -371, -349, -324, -322, -320, -307, -320, -346, -366, -397, -453, -521, -569, -594, -623, -637, -645, -664, -657, -647, -662, -664, -640, -625, -625, -625, -625, -608, -596, -611])
('ECG', 1751792973570263070, [-611, -589, -596, -618, -620, -611, -599, -594, -594, -589, -594, -606, -596, -579, -589, -601, -589, -594, -620, -608, -577, -584, -596, -569, -543, -548, -565, -582, -594, -594, -584, -582, -582, -586, -611, -679, -688, -363, 286, 788, 363, -853, -1217, -569, -431, -674, -577, -502, -582, -555, -506, -526, -504, -470, -477, -482, -451, -424, -414, -409, -417, -404, -385, -378, -366, -373, -409, -441, -482, -538, -586, -640, -688])
('ECG', 1751792974131824788, [-698, -693, -708, -722, -708, -705, -715, -712, -715, -710, -696, -683, -664, -657, -657, -662, -662, -637, -637, -652, -642, -642, -645, -632, -632, -645, -642, -630, -620, -615, -611, -611, -611, -613, -615, -606, -601, -608, -601, -596, -594, -596, -606, -591, -569, -562, -548, -540, -552, -577, -589, -584, -572, -555, -555, -574, -596, -640, -552, -101, 540, 776, -50, -1120, -933, -366, -523, -642, -470, -470, -552, -511, -463])
('ECG', 1751792974693417022, [-475, -475, -448, -429, -419, -412, -395, -361, -327, -324, -339, -327, -320, -324, -324, -337, -366, -414, -475, -511, -548, -599, -613, -611, -630, -637, -615, -599, -586, -574, -577, -567, -548, -533, -521, -521, -516, -499, -494, -494, -487, -472, -465, -472, -480, -485, -485, -475, -477, -472, -451, -460, -475, -455, -443, -446, -443, -446, -448, -443, -448, -460, -451, -443, -451, -453, -451, -472, -482, -465, -455, -468, -472])
('ECG', 1751792975254983828, [-460, -489, -538, -555, -555, -552, -552, -562, -579, -628, -657, -429, 138, 676, 504, -555, -1178, -688, -419, -693, -683, -548, -606, -640, -594, -569, -567, -579, -555, -494, -472, -475, -468, -446, -436, -421, -397, -397, -402, -378, -366, -409, -472, -514, -538, -572, -608, -642, -674, -666, -640, -669, -698, -666, -637, -647, -649, -628, -618, -625, -623, -618, -623, -618, -606, -603, -601, -596, -594, -594, -591, -586, -574])
('ECG', 1751792975816570978, [-577, -589, -591, -582, -572, -569, -572, -572, -565, -552, -560, -562, -548, -540, -545, -550, -538, -526, -526, -526, -523, -511, -516, -540, -545, -518, -499, -509, -516, -489, -482, -502, -509, -531, -535, -514, -506, -509, -514, -562, -550, -244, 312, 759, 502, -475, -914, -480, -337, -548, -487, -388, -448, -463, -400, -388, -397, -371, -341, -334, -332, -317, -291, -269, -264, -254, -237, -230, -215, -210, -225, -244, -271])
('ECG', 1751792976378132696, [-317, -371, -419, -448, -472, -502, -518, -509, -504, -504, -494, -494, -502, -494, -480, -475, -472, -472, -475, -475, -482, -480, -468, -468, -475, -487, -489, -480, -480, -480, -475, -492, -499, -487, -492, -506, -506, -489, -485, -497, -502, -497, -494, -499, -494, -506, -514, -492, -489, -511, -518, -506, -494, -497, -514, -518, -499, -482, -480, -480, -482, -492, -506, -521, -523, -511, -509, -514, -516, -548, -594, -460, -33])
('ECG', 1751792976939694414, [480, 642, -67, -955, -783, -329, -487, -582, -438, -446, -489, -463, -468, -453, -414, -417, -414, -395, -375, -354, -341, -346, -339, -317, -307, -303, -303, -324, -346, -361, -390, -431, -485, -538, -565, -577, -591, -601, -606, -601, -594, -603, -603, -579, -572, -577, -572, -560, -555, -557, -550, -540, -538, -552, -560, -548, -540, -550, -557, -552, -550, -550, -548, -550, -555, -545, -535, -538, -538, -533, -531, -526, -523])
('ECG', 1751792977501256132, [-528, -533, -535, -533, -521, -516, -521, -526, -521, -516, -518, -514, -504, -506, -523, -521, -509, -504, -504, -504, -492, -468, -468, -489, -494, -497, -502, -494, -489, -504, -540, -586, -448, 21, 584, 722, -36, -909, -712, -283, -475, -574, -421, -441, -509, -460, -434, -446, -424, -404, -402, -392, -380, -371, -346, -327, -322, -310, -303, -310, -307, -307, -327, -361, -400, -436, -480, -518, -538, -569, -606, -611, -601])
('ECG', 1751792978062848366, [-603, -603, -601, -594, -591, -589, -577, -569, -567, -560, -555, -560, -562, -550, -538, -548, -555, -545, -543, -550, -543, -528, -531, -543, -538, -526, -523, -518, -518, -533, -531, -516, -511, -511, -514, -511, -504, -494, -499, -506, -497, -487, -497, -506, -494, -480, -497, -514, -504, -499, -502, -485, -472, -472, -460, -453, -475, -499, -499, -492, -494, -499, -509, -552, -552, -276, 269, 698, 424, -540, -931, -443, -320])
('ECG', 1751792978624415172, [-572, -518, -429, -494, -487, -443, -453, -446, -424, -419, -402, -378, -368, -361, -354, -344, -324, -310, -315, -334, -346, -341, -351, -390, -434, -477, -523, -560, -579, -599, -618, -623, -620, -615, -608, -603, -603, -606, -603, -586, -572, -577, -591, -586, -574, -569, -572, -582, -577, -567, -574, -584, -569, -560, -572, -574, -565, -560, -552, -552, -557, -560, -560, -557, -545, -543, -550, -543, -540, -548, -540, -531, -531])
('ECG', 1751792979185981976, [-523, -526, -538, -531, -514, -518, -528, -533, -526, -509, -504, -502, -506, -526, -533, -531, -540, -533, -514, -531, -579, -589, -392, 77, 557, 472, -429, -1040, -628, -339, -555, -548, -429, -482, -502, -446, -443, -465, -441, -409, -404, -400, -385, -375, -363, -351, -349, -337, -322, -329, -339, -344, -366, -400, -434, -477, -523, -565, -596, -608, -623, -635, -635, -628, -623, -620, -613, -608, -606, -601, -596, -596, -594])
('ECG', 1751792979747548780, [-591, -594, -584, -569, -572, -574, -572, -574, -584, -579, -565, -562, -562, -565, -562, -560, -555, -545, -545, -555, -545, -526, -523, -535, -540, -535, -533, -535, -531, -526, -523, -528, -531, -528, -523, -518, -506, -492, -487, -494, -494, -502, -514, -514, -504, -502, -509, -533, -577, -506, -135, 407, 652, 50, -885, -858, -339, -409, -579, -460, -426, -492, -463, -429, -436, -426, -402, -388, -383, -375, -358, -339, -327])
('ECG', 1751792980309125758, [-320, -307, -295, -303, -322, -324, -329, -356, -390, -431, -475, -514, -548, -572, -584, -596, -594, -594, -599, -606, -608, -586, -572, -577, -574, -569, -565, -552, -543, -555, -562, -555, -550, -548, -550, -567, -569, -550, -545, -560, -555, -540, -538, -538, -538, -543, -538, -528, -528, -531, -533, -533, -523, -514, -516, -514, -509, -506, -511, -511, -502, -509, -523, -516, -504, -494, -480, -475, -470, -465, -480, -499, -494])
('ECG', 1751792980870687476, [-485, -482, -487, -502, -538, -567, -390, 106, 618, 582, -288, -984, -620, -281, -502, -538, -409, -451, -482, -426, -419, -436, -417, -397, -390, -373, -349, -339, -339, -327, -310, -300, -303, -295, -283, -291, -317, -341, -380, -436, -480, -511, -535, -555, -572, -574, -569, -569, -572, -582, -582, -569, -560, -548, -538, -538, -550, -545, -533, -533, -535, -531, -528, -533, -531, -531, -535, -531, -526, -523, -526, -521, -511])
('ECG', 1751792981432279710, [-514, -523, -516, -502, -502, -511, -514, -518, -509, -489, -499, -504, -489, -487, -499, -489, -475, -480, -482, -482, -497, -499, -480, -463, -460, -463, -460, -455, -468, -482, -485, -482, -482, -487, -528, -586, -472, -29, 516, 652, -84, -957, -773, -322, -468, -567, -446, -455, -497, -451, -426, -436, -424, -404, -397, -378, -356, -351, -349, -334, -322, -315, -303, -298, -312, -327, -332, -349, -395, -441, -489, -538, -565])
('ECG', 1751792981993841430, [-591, -608, -599, -599, -618, -615, -591, -596, -601, -577, -557, -565, -565, -555, -557, -565, -557, -555, -560, -552, -543, -545, -550, -540, -533, -540, -548, -538, -533, -535, -533, -526, -528, -535, -531, -521, -526, -528, -518, -506, -504, -502, -499, -506, -514, -506, -494, -492, -489, -485, -489, -499, -497, -485, -477, -472, -465, -451, -448, -468, -477, -480, -487, -482, -470, -475, -502, -550, -511, -181, 380, 737, 269])
('ECG', 1751792982555403148, [-734, -902, -371, -354, -557, -451, -397, -472, -458, -417, -424, -414, -390, -390, -380, -351, -339, -332, -310, -295, -288, -276, -274, -283, -293, -303, -322, -358, -412, -463, -494, -521, -560, -582, -582, -586, -594, -586, -584, -582, -572, -567, -567, -560, -548, -540, -543, -540, -531, -533, -543, -535, -526, -533, -531, -526, -528, -516, -516, -528, -528, -521, -509, -511, -531, -526, -506, -511, -514, -504, -504, -511, -506])
('ECG', 1751792983116980124, [-492, -485, -482, -494, -499, -482, -482, -489, -482, -482, -492, -482, -470, -472, -475, -480, -477, -472, -472, -475, -477, -475, -465, -465, -463, -460, -458, -443, -446, -472, -489, -477, -463, -463, -470, -509, -562, -429, 38, 601, 722, -67, -926, -696, -281, -477, -560, -421, -458, -509, -448, -429, -443, -421, -409, -407, -392, -378, -366, -339, -324, -329, -317, -298, -295, -303, -315, -334, -351, -375, -421, -480, -521])
('ECG', 1751792983678546928, [-543, -565, -586, -611, -623, -615, -623, -630, -606, -584, -599, -606, -584, -567, -567, -569, -572, -574, -567, -560, -557, -565, -565, -552, -543, -543, -540, -540, -543, -538, -531, -535, -538, -531, -523, -516, -514, -521, -521, -514, -511, -511, -511, -509, -511, -511, -502, -494, -499, -504, -499, -492, -494, -499, -492, -489, -497, -492, -472, -470, -472, -458, -448, -468, -489, -499, -497, -492, -489, -497, -533, -560, -356])
('ECG', 1751792984240118820, [169, 679, 550, -417, -1023, -569, -286, -511, -499, -404, -472, -477, -419, -424, -426, -395, -385, -378, -351, -341, -341, -317, -291, -283, -281, -278, -278, -278, -293, -317, -339, -383, -443, -485, -518, -552, -569, -579, -589, -596, -603, -599, -582, -584, -586, -565, -552, -560, -560, -550, -535, -540, -543, -528, -523, -528, -528, -521, -521, -528, -523, -511, -514, -518, -521, -511, -497, -502, -514, -509, -499, -506, -504])
('ECG', 1751792984801680538, [-494, -487, -487, -492, -494, -497, -497, -480, -470, -489, -489, -463, -460, -482, -485, -472, -468, -465, -468, -465, -468, -477, -472, -468, -475, -463, -451, -448, -441, -436, -453, -472, -477, -475, -470, -460, -470, -514, -560, -426, 53, 637, 751, -63, -926, -681, -259, -468, -555, -409, -429, -477, -434, -421, -434, -407, -388, -388, -366, -344, -349, -334, -305, -293, -281, -269, -269, -271, -276, -291, -312, -351, -402])
('ECG', 1751792985363247342, [-451, -497, -531, -557, -569, -579, -586, -586, -582, -574, -565, -557, -555, -552, -543, -533, -533, -535, -526, -514, -509, -514, -516, -509, -504, -499, -494, -499, -509, -511, -504, -494, -497, -502, -494, -487, -489, -489, -487, -482, -480, -485, -485, -482, -482, -477, -463, -465, -480, -482, -470, -470, -472, -465, -465, -472, -472, -470, -470, -460, -455, -460, -455, -441, -434, -443, -448, -451, -465, -475, -463, -453, -475])
('ECG', 1751792985924814146, [-533, -506, -179, 407, 812, 404, -628, -904, -373, -307, -540, -465, -395, -458, -441, -397, -407, -402, -375, -368, -358, -339, -322, -307, -300, -293, -266, -247, -247, -249, -254, -266, -283, -317, -368, -421, -470, -511, -543, -560, -562, -569, -574, -572, -569, -567, -555, -540, -543, -543, -531, -528, -518, -506, -504, -506, -504, -499, -497, -492, -487, -482, -487, -489, -480, -477, -485, -485, -477, -472, -472, -475, -463])
('ECG', 1751792986486380950, [-458, -465, -463, -460, -472, -475, -455, -446, -455, -460, -453, -448, -453, -451, -434, -429, -436, -438, -441, -446, -438, -434, -441, -441, -441, -436, -421, -417, -417, -414, -421, -434, -443, -448, -443, -443, -448, -451, -477, -506, -283, 288, 800, 642, -320, -899, -460, -223, -470, -465, -361, -414, -419, -375, -390, -385, -344, -329, -327, -310, -295, -283, -266, -252, -242, -227, -218, -223, -227, -232, -249, -283, -327])
('ECG', 1751792987047957928, [-378, -429, -475, -509, -531, -550, -567, -569, -555, -552, -555, -540, -528, -533, -526, -506, -497, -502, -497, -482, -485, -497, -494, -485, -477, -475, -475, -477, -475, -468, -470, -472, -470, -460, -455, -470, -468, -448, -458, -468, -458, -455, -458, -448, -441, -460, -463, -446, -448, -460, -458, -451, -458, -465, -455, -448, -455, -460, -443, -441, -448, -441, -431, -436, -441, -434, -417, -407, -421, -429, -414, -409, -426])
('ECG', 1751792987609519646, [-434, -436, -446, -453, -446, -446, -482, -533, -395, 72, 603, 674, -121, -945, -691, -269, -472, -577, -443, -458, -497, -443, -436, -458, -446, -431, -424, -407, -390, -368, -354, -354, -346, -310, -286, -295, -312, -324, -354, -385, -424, -463, -497, -555, -613, -623, -618, -647, -669, -647, -645, -669, -664, -630, -613, -625, -628, -615, -611, -615, -615, -599, -582, -577, -579, -591, -586, -567, -582, -596, -560, -540, -565])
('ECG', 1751792988171081364, [-574, -552, -533, -531, -533, -531, -528, -533, -533, -516, -509, -528, -540, -516, -506, -526, -511, -480, -502, -526, -511, -506, -506, -499, -487, -463, -448, -480, -504, -475, -460, -477, -485, -499, -504, -482, -477, -492, -516, -557, -470, -46, 533, 674, -109, -1013, -843, -383, -480, -535, -412, -434, -482, -438, -409, -407, -407, -402, -390, -378, -361, -332, -322, -324, -305, -283, -291, -293, -283, -293, -315, -339, -383])
('ECG', 1751792988732648168, [-434, -472, -518, -569, -594, -608, -623, -618, -628, -640, -632, -623, -606, -594, -589, -565, -548, -562, -565, -550, -550, -555, -543, -521, -506, -506, -516, -511, -494, -482, -475, -497, -514, -489, -487, -497, -487, -489, -482, -458, -451, -458, -460, -460, -468, -453, -417, -424, -453, -455, -441, -426, -429, -446, -448, -424, -402, -409, -419, -404, -383, -383, -404, -392, -371, -400, -421, -419, -421, -404, -409, -426, -426])
('ECG', 1751792989294214972, [-451, -329, 118, 645, 662, -181, -919, -630, -288, -436, -434, -315, -361, -385, -320, -317, -329, -288, -274, -286, -271, -249, -230, -208, -174, -174, -186, -157, -135, -145, -172, -215, -227, -232, -291, -346, -385, -429, -470, -477, -458, -477, -506, -504, -502, -492, -494, -502, -475, -460, -470, -458, -438, -424, -421, -417, -412, -417, -412, -412, -419, -407, -404, -421, -426, -417, -407, -419, -426, -421, -436, -443, -426])
('ECG', 1751792989855781776, [-434, -451, -441, -424, -431, -436, -424, -421, -429, -424, -424, -431, -431, -429, -434, -421, -414, -434, -441, -429, -426, -436, -436, -421, -414, -431, -446, -451, -465, -465, -451, -458, -497, -550, -502, -167, 363, 693, 232, -776, -974, -458, -414, -579, -465, -438, -523, -494, -436, -446, -463, -458, -443, -421, -397, -380, -373, -363, -354, -341, -337, -329, -315, -329, -349, -346, -368, -424, -480, -521, -565, -601, -611])
('ECG', 1751792990417348580, [-618, -632, -625, -611, -620, -637, -647, -632, -608, -594, -582, -582, -584, -569, -565, -589, -591, -550, -518, -533, -557, -560, -548, -543, -550, -560, -545, -533, -535, -528, -521, -543, -552, -550, -552, -540, -516, -514, -523, -502, -482, -494, -509, -502, -499, -497, -485, -475, -475, -470, -455, -446, -446, -458, -463, -465, -475, -489, -485, -472, -485, -531, -516, -206, 414, 921, 552, -632, -1062, -470, -291, -509, -434])
('ECG', 1751792990978915384, [-344, -395, -392, -358, -375, -373, -324, -305, -307, -278, -252, -247, -252, -237, -203, -186, -191, -194, -194, -194, -227, -288, -337, -385, -438, -485, -518, -545, -565, -572, -572, -565, -565, -565, -550, -543, -543, -526, -521, -526, -521, -514, -504, -506, -516, -504, -494, -487, -477, -492, -509, -492, -475, -475, -472, -480, -485, -472, -463, -463, -458, -458, -458, -455, -455, -448, -436, -443, -455, -448, -446, -453, -436])
('ECG', 1751792991540482188, [-407, -407, -412, -409, -414, -417, -414, -443, -463, -441, -419, -429, -485, -506, -259, 329, 899, 734, -378, -1076, -596, -271, -468, -436, -341, -390, -380, -354, -358, -327, -310, -329, -315, -271, -249, -247, -232, -206, -201, -206, -191, -172, -172, -194, -230, -264, -303, -354, -414, -463, -485, -514, -540, -540, -552, -562, -552, -538, -531, -531, -514, -504, -511, -506, -492, -472, -472, -502, -502, -472, -463, -458, -455])
('ECG', 1751792992102018476, [-465, -477, -470, -451, -453, -458, -451, -460, -468, -455, -441, -448, -455, -438, -434, -438, -424, -436, -453, -441, -429, -424, -419, -407, -402, -419, -431, -446, -446, -426, -426, -438, -470, -516, -460, -113, 502, 957, 492, -671, -970, -385, -291, -502, -400, -329, -407, -388, -341, -358, -354, -327, -305, -281, -271, -254, -225, -210, -206, -184, -179, -177, -164, -172, -201, -225, -257, -310, -368, -412, -455, -494, -514])
('ECG', 1751792992663605626, [-528, -550, -552, -533, -526, -531, -521, -511, -511, -509, -504, -492, -482, -482, -480, -472, -475, -472, -465, -458, -455, -463, -463, -455, -463, -470, -465, -475, -494, -487, -463, -468, -482, -477, -453, -438, -451, -475, -477, -468, -463, -470, -475, -472, -455, -443, -453, -451, -431, -429, -458, -492, -497, -477, -463, -470, -514, -555, -438, -14, 586, 875, 169, -914, -865, -315, -431, -565, -392, -388, -465, -436, -429])
('ECG', 1751792993225167344, [-436, -404, -400, -402, -368, -337, -344, -339, -295, -264, -252, -240, -247, -254, -247, -274, -324, -349, -380, -446, -502, -545, -589, -611, -599, -582, -599, -608, -577, -560, -586, -603, -567, -531, -545, -562, -555, -545, -533, -521, -509, -499, -514, -538, -535, -494, -492, -550, -557, -514, -497, -480, -434, -438, -499, -514, -489, -482, -470, -468, -497, -504, -480, -468, -453, -434, -470, -506, -475, -470, -523, -533, -494])
('ECG', 1751792993786729062, [-475, -475, -463, -453, -463, -455, -463, -497, -489, -460, -448, -453, -494, -562, -477, -67, 502, 819, 351, -647, -863, -366, -351, -569, -468, -400, -477, -451, -400, -424, -412, -375, -390, -400, -373, -358, -349, -315, -281, -269, -259, -257, -259, -254, -266, -298, -334, -402, -460, -470, -521, -599, -608, -596, -618, -615, -599, -606, -603, -586, -589, -594, -574, -555, -560, -572, -567, -555, -533, -516, -528, -540, -535])
('ECG', 1751792994348290780, [-533, -526, -516, -514, -518, -531, -528, -506, -502, -504, -487, -480, -487, -477, -458, -458, -470, -475, -470, -468, -470, -455, -434, -438, -458, -448, -424, -438, -465, -453, -419, -426, -438, -407, -400, -431, -407, -356, -375, -421, -417, -412, -426, -404, -373, -407, -492, -438, -72, 489, 868, 429, -628, -863, -320, -283, -497, -392, -322, -385, -380, -346, -349, -341, -310, -288, -278, -264, -249, -247, -237, -215, -189])
('ECG', 1751792994909852498, [-181, -186, -179, -164, -174, -206, -230, -257, -310, -378, -419, -441, -470, -485, -477, -485, -504, -506, -489, -480, -480, -472, -455, -458, -472, -465, -453, -448, -436, -436, -441, -426, -421, -441, -429, -397, -419, -448, -436, -424, -421, -404, -395, -407, -412, -417, -424, -404, -392, -397, -392, -392, -407, -404, -388, -392, -402, -385, -363, -363, -358, -341, -354, -383, -388, -378, -380, -388, -385, -407, -451, -307, 169])
('ECG', 1751792995471419302, [746, 860, 14, -926, -698, -189, -322, -431, -320, -322, -341, -300, -295, -295, -276, -271, -266, -244, -230, -225, -206, -179, -169, -164, -150, -140, -152, -162, -172, -213, -266, -312, -361, -419, -448, -455, -485, -521, -528, -516, -506, -504, -509, -494, -468, -463, -472, -472, -472, -470, -458, -441, -436, -455, -455, -434, -448, -470, -451, -419, -431, -453, -446, -436, -419, -407, -414, -419, -421, -434, -431, -407, -392])
('ECG', 1751792996032986106, [-409, -417, -400, -400, -414, -409, -402, -409, -404, -400, -414, -409, -392, -385, -383, -363, -346, -356, -385, -395, -388, -397, -404, -395, -419, -455, -259, 291, 858, 851, -72, -868, -533, -157, -400, -465, -322, -361, -400, -341, -329, -334, -315, -310, -305, -276, -244, -240, -242, -218, -181, -172, -164, -143, -155, -179, -184, -208, -261, -317, -356, -407, -472, -499, -499, -518, -538, -518, -494, -499, -516, -506, -487])
('ECG', 1751792996594568170, [-489, -497, -465, -441, -468, -475, -448, -446, -451, -448, -458, -455, -436, -436, -431, -419, -426, -429, -421, -421, -424, -421, -414, -412, -417, -407, -395, -397, -400, -400, -400, -402, -402, -385, -375, -390, -402, -390, -371, -373, -383, -385, -397, -392, -363, -351, -361, -341, -320, -341, -373, -371, -368, -383, -380, -375, -414, -446, -254, 261, 822, 836, -63, -848, -523, -164, -397, -451, -310, -346, -397, -354, -327])
('ECG', 1751792997156119714, [-320, -300, -298, -298, -278, -264, -249, -220, -206, -213, -201, -181, -184, -186, -189, -206, -227, -257, -303, -368, -431, -460, -475, -511, -531, -518, -521, -528, -518, -514, -509, -497, -502, -494, -480, -499, -494, -458, -468, -492, -477, -468, -475, -463, -448, -448, -455, -460, -463, -460, -455, -448, -436, -434, -438, -438, -446, -453, -438, -431, -443, -441, -417, -412, -429, -431, -417, -412, -421, -431, -412, -383, -385])
('ECG', 1751792997717686518, [-385, -368, -373, -407, -421, -409, -407, -421, -414, -412, -460, -431, -113, 429, 814, 426, -601, -902, -356, -232, -443, -375, -305, -378, -363, -310, -317, -317, -291, -283, -271, -247, -232, -218, -203, -191, -179, -169, -164, -162, -167, -181, -196, -218, -269, -341, -397, -421, -438, -468, -482, -485, -494, -499, -494, -497, -482, -465, -472, -468, -446, -453, -453, -436, -451, -460, -436, -431, -441, -441, -436, -431, -434])
('ECG', 1751792998279253322, [-438, -434, -434, -436, -426, -412, -419, -429, -419, -402, -395, -388, -390, -402, -404, -402, -388, -380, -397, -400, -388, -385, -388, -380, -371, -366, -358, -351, -351, -339, -324, -334, -346, -344, -346, -356, -354, -358, -417, -431, -164, 380, 848, 681, -276, -863, -424, -152, -390, -404, -281, -320, -356, -324, -317, -317, -293, -278, -266, -242, -220, -203, -191, -194, -191, -169, -145, -145, -164, -179, -184, -208, -257])
('ECG', 1751792998840815042, [-300, -349, -409, -455, -468, -475, -492, -499, -492, -482, -475, -477, -472, -460, -465, -472, -455, -436, -431, -429, -417, -412, -421, -429, -429, -429, -426, -419, -417, -409, -402, -402, -409, -412, -402, -375, -361, -385, -397, -380, -383, -400, -397, -380, -368, -363, -366, -378, -385, -383, -373, -371, -371, -363, -346, -341, -344, -356, -388, -402, -373, -346, -351, -366, -392, -443, -400, -43, 523, 848, 351, -659, -817])
('ECG', 1751792999402376760, [-269, -247, -460, -366, -305, -371, -354, -312, -317, -312, -288, -281, -278, -252, -220, -201, -184, -174, -169, -164, -169, -167, -162, -177, -201, -230, -266, -324, -388, -424, -443, -465, -487, -502, -509, -504, -487, -487, -487, -465, -448, -458, -453, -438, -441, -448, -438, -434, -443, -436, -424, -431, -426, -414, -419, -431, -419, -392, -397, -414, -407, -409, -426, -417, -378, -361, -380, -388, -378, -385, -392, -388, -395])
('ECG', 1751792999963923218, [-400, -400, -385, -366, -356, -358, -349, -337, -354, -383, -380, -366, -356, -344, -344, -378, -429, -354, 41, 611, 848, 201, -761, -727, -220, -281, -402, -274, -259, -320, -291, -264, -264, -242, -218, -223, -232, -218, -184, -157, -160, -157, -140, -128, -109, -116, -147, -167, -191, -237, -276, -307, -332, -361, -409, -448, -443, -443, -465, -460, -446, -441, -429, -417, -417, -414, -407, -404, -404, -395, -385, -388, -395])
('ECG', 1751793000525490022, [-390, -378, -385, -392, -375, -373, -385, -375, -373, -388, -380, -368, -366, -358, -371, -390, -395, -383, -375, -368, -356, -363, -366, -349, -361, -373, -341, -334, -354, -339, -320, -339, -363, -361, -349, -356, -366, -371, -407, -380, -53, 518, 892, 438, -615, -860, -295, -191, -390, -315, -257, -327, -317, -257, -257, -266, -249, -232, -223, -208, -194, -179, -167, -160, -152, -140, -123, -123, -145, -162, -181, -218, -261])
('ECG', 1751793001087061914, [-312, -356, -388, -426, -465, -463, -436, -434, -448, -451, -451, -455, -453, -431, -404, -419, -443, -441, -438, -446, -417, -392, -419, -436, -424, -419, -419, -419, -407, -397, -417, -419, -395, -392, -407, -402, -392, -407, -407, -390, -390, -380, -366, -385, -407, -390, -392, -402, -378, -380, -397, -363, -354, -392, -383, -346, -351, -366, -392, -409, -397, -436, -395, 0, 594, 887, 339, -681, -809, -293, -283, -412, -303])
('ECG', 1751793001648623630, [-305, -363, -320, -295, -307, -274, -242, -240, -242, -242, -223, -196, -169, -140, -123, -128, -150, -160, -150, -145, -167, -210, -269, -339, -390, -412, -434, -468, -489, -499, -502, -489, -477, -477, -463, -443, -455, -458, -443, -443, -441, -443, -453, -434, -409, -426, -436, -419, -412, -421, -426, -431, -438, -421, -388, -400, -421, -412, -409, -417, -414, -424, -421, -395, -395, -414, -417, -421, -426, -407, -395, -395, -385])
('ECG', 1751793002210185350, [-375, -388, -404, -402, -390, -390, -390, -402, -434, -485, -414, 7, 623, 887, 227, -776, -754, -232, -329, -485, -337, -324, -404, -356, -303, -327, -332, -293, -288, -300, -266, -227, -227, -227, -201, -191, -208, -198, -191, -215, -215, -203, -274, -373, -400, -409, -460, -492, -489, -506, -521, -526, -533, -526, -533, -514, -460, -468, -514, -514, -485, -465, -458, -451, -468, -482, -443, -417, -446, -458, -441, -446, -451])
('ECG', 1751793002771747068, [-448, -443, -409, -400, -434, -434, -400, -409, -426, -385, -378, -424, -419, -397, -407, -404, -392, -383, -363, -354, -378, -397, -380, -351, -356, -392, -414, -404, -404, -453, -460, -162, 463, 916, 470, -652, -943, -354, -237, -438, -349, -281, -344, -327, -281, -293, -300, -266, -240, -235, -220, -203, -198, -181, -152, -145, -152, -155, -152, -157, -169, -186, -237, -307, -358, -388, -417, -446, -470, -487, -494, -487, -477])
('ECG', 1751793003333308786, [-470, -468, -470, -480, -472, -455, -455, -460, -451, -441, -443, -436, -424, -429, -441, -438, -431, -431, -434, -438, -438, -431, -426, -426, -421, -414, -424, -436, -424, -421, -426, -426, -431, -426, -409, -397, -385, -385, -402, -407, -404, -414, -417, -409, -407, -407, -434, -497, -460, -75, 562, 909, 286, -805, -865, -288, -295, -448, -327, -305, -383, -351, -307, -315, -298, -274, -283, -276, -242, -230, -225, -198, -179])
('ECG', 1751793003894870504, [-162, -150, -155, -150, -143, -174, -218, -264, -317, -354, -388, -431, -458, -472, -497, -518, -506, -487, -492, -499, -487, -477, -485, -487, -477, -465, -460, -463, -465, -453, -446, -458, -470, -463, -453, -448, -441, -434, -441, -441, -431, -426, -426, -421, -419, -417, -417, -419, -412, -402, -400, -400, -397, -395, -397, -395, -395, -400, -407, -397, -385, -373, -366, -371, -385, -397, -400, -397, -397, -400, -397, -426, -487])
('ECG', 1751793004456432222, [-371, 109, 703, 836, 31, -875, -654, -186, -363, -470, -329, -339, -392, -346, -317, -324, -320, -305, -286, -276, -261, -237, -220, -215, -201, -191, -186, -184, -179, -181, -198, -235, -278, -324, -375, -419, -448, -472, -492, -499, -506, -509, -502, -492, -487, -487, -492, -482, -463, -460, -465, -460, -453, -453, -455, -448, -438, -441, -448, -448, -443, -436, -436, -438, -441, -441, -429, -409, -417, -434, -434, -426, -409])
('ECG', 1751793005017993938, [-400, -414, -421, -414, -419, -424, -419, -402, -395, -409, -402, -378, -380, -388, -375, -373, -388, -402, -409, -409, -397, -388, -400, -448, -494, -337, 198, 839, 902, -70, -970, -615, -169, -392, -448, -303, -341, -375, -315, -310, -317, -283, -266, -274, -257, -232, -218, -206, -189, -174, -162, -155, -152, -160, -174, -191, -227, -278, -327, -368, -424, -468, -485, -499, -502, -492, -497, -502, -499, -499, -494, -489, -485])
('ECG', 1751793005579555658, [-475, -465, -465, -460, -446, -441, -443, -438, -431, -431, -438, -446, -429, -412, -417, -424, -424, -426, -419, -421, -429, -426, -417, -414, -412, -414, -414, -407, -402, -407, -409, -412, -417, -409, -397, -395, -392, -378, -371, -380, -395, -404, -402, -392, -392, -400, -429, -494, -431, 4, 679, 1011, 291, -856, -839, -237, -305, -463, -324, -307, -368, -322, -293, -310, -291, -264, -252, -240, -232, -220, -194, -174, -164])
('ECG', 1751793006141097030, [-155, -150, -150, -150, -157, -174, -208, -247, -298, -354, -402, -434, -455, -482, -494, -497, -502, -497, -492, -494, -494, -480, -468, -468, -463, -451, -441, -441, -436, -429, -424, -426, -424, -414, -412, -414, -414, -412, -412, -412, -409, -407, -407, -414, -407, -400, -404, -409, -402, -400, -395, -390, -390, -395, -392, -385, -388, -383, -368, -366, -373, -378, -378, -378, -378, -380, -383, -371, -354, -349, -344, -339, -349])
('ECG', 1751793006702663834, [-366, -385, -388, -375, -371, -383, -436, -494, -307, 286, 962, 1037, 60, -870, -550, -128, -383, -458, -298, -339, -388, -322, -307, -329, -305, -278, -276, -266, -244, -223, -206, -194, -184, -167, -155, -152, -157, -162, -174, -206, -247, -300, -356, -400, -429, -458, -485, -494, -494, -492, -492, -487, -477, -470, -470, -470, -465, -458, -455, -451, -436, -421, -421, -429, -426, -426, -429, -421, -417, -419, -414, -414, -414])
('ECG', 1751793007264210294, [-404, -402, -409, -407, -400, -404, -404, -395, -395, -397, -395, -392, -385, -380, -385, -380, -366, -373, -385, -375, -366, -371, -366, -358, -363, -363, -354, -354, -356, -358, -358, -351, -337, -339, -349, -332, -315, -322, -334, -339, -351, -356, -344, -339, -363, -424, -460, -235, 363, 982, 940, -67, -839, -451, -126, -390, -424, -291, -339, -371, -315, -307, -315, -288, -276, -276, -252, -230, -227, -213, -194, -181, -174])
('ECG', 1751793007825772012, [-167, -162, -164, -177, -196, -223, -252, -303, -363, -402, -431, -465, -489, -497, -499, -506, -506, -492, -482, -480, -472, -470, -475, -470, -458, -453, -458, -458, -443, -438, -443, -438, -431, -431, -436, -431, -421, -419, -424, -429, -429, -424, -421, -421, -417, -417, -419, -414, -400, -397, -404, -404, -402, -404, -400, -392, -390, -395, -392, -390, -390, -388, -385, -390, -388, -380, -385, -385, -378, -373, -380, -383, -361])
('ECG', 1751793008387333730, [-346, -366, -383, -385, -388, -390, -383, -383, -414, -477, -400, 50, 703, 994, 320, -725, -715, -189, -295, -475, -344, -322, -385, -349, -322, -332, -315, -291, -281, -266, -249, -242, -232, -218, -201, -189, -177, -169, -177, -184, -189, -208, -247, -293, -344, -390, -424, -453, -477, -487, -492, -499, -494, -482, -480, -477, -465, -455, -455, -453, -446, -436, -431, -434, -424, -414, -419, -421, -417, -409, -409, -407, -397])
('ECG', 1751793008948895448, [-392, -395, -392, -383, -380, -380, -375, -373, -371, -368, -363, -363, -361, -351, -351, -349, -341, -341, -344, -337, -337, -344, -339, -329, -329, -337, -332, -327, -327, -329, -324, -320, -322, -322, -320, -315, -320, -320, -305, -293, -303, -317, -327, -327, -324, -324, -332, -363, -419, -288, 220, 834, 945, 109, -785, -545, -106, -305, -402, -269, -295, -341, -288, -271, -281, -261, -242, -237, -223, -203, -194, -184, -169])
('ECG', 1751793009510457166, [-157, -150, -145, -143, -143, -143, -155, -184, -215, -247, -295, -344, -378, -400, -419, -434, -441, -438, -436, -434, -429, -419, -407, -400, -392, -385, -383, -378, -373, -373, -375, -375, -373, -363, -356, -361, -358, -356, -358, -354, -344, -349, -358, -358, -351, -349, -351, -349, -349, -346, -346, -344, -341, -341, -339, -332, -329, -332, -334, -329, -324, -324, -324, -320, -322, -329, -327, -322, -324, -322, -317, -312, -315])
('ECG', 1751793010072003624, [-317, -307, -303, -315, -305, -283, -291, -312, -322, -322, -317, -315, -320, -334, -385, -356, 9, 630, 977, 436, -589, -708, -177, -203, -407, -288, -247, -327, -300, -259, -269, -261, -235, -220, -215, -208, -194, -174, -162, -155, -147, -138, -130, -135, -140, -150, -174, -208, -244, -281, -322, -366, -390, -402, -421, -434, -429, -431, -434, -424, -419, -419, -417, -402, -392, -397, -400, -388, -383, -392, -392, -383, -383])
('ECG', 1751793010633570428, [-388, -388, -383, -385, -385, -380, -378, -375, -380, -383, -380, -383, -385, -380, -373, -375, -378, -375, -378, -380, -383, -378, -371, -373, -375, -368, -366, -375, -380, -375, -375, -375, -375, -373, -366, -363, -363, -363, -363, -363, -366, -363, -349, -346, -361, -346, -322, -334, -358, -366, -363, -366, -366, -366, -400, -451, -298, 210, 766, 776, -75, -822, -506, -135, -341, -400, -274, -305, -341, -293, -278, -283, -259])
('ECG', 1751793011195111802, [-237, -237, -223, -198, -179, -167, -157, -147, -138, -138, -140, -135, -145, -162, -177, -203, -247, -283, -312, -341, -368, -388, -397, -397, -395, -395, -388, -375, -371, -368, -358, -351, -351, -349, -339, -339, -341, -344, -346, -344, -334, -332, -329, -327, -329, -332, -329, -322, -315, -312, -312, -310, -300, -298, -298, -293, -293, -298, -293, -288, -283, -276, -274, -276, -278, -276, -276, -276, -271, -269, -271, -269, -264])
('ECG', 1751793011756673520, [-264, -269, -269, -259, -254, -252, -244, -247, -244, -220, -220, -240, -247, -247, -252, -249, -244, -264, -312, -286, 31, 584, 914, 448, -502, -662, -164, -138, -315, -223, -191, -261, -227, -191, -208, -198, -177, -174, -162, -143, -135, -123, -104, -99, -99, -84, -77, -89, -106, -113, -133, -162, -194, -232, -278, -310, -329, -356, -373, -371, -363, -375, -385, -375, -363, -358, -361, -358, -354, -349, -344, -339, -339])
('ECG', 1751793012318240324, [-346, -349, -341, -337, -334, -332, -334, -334, -327, -320, -317, -317, -317, -317, -317, -317, -317, -315, -310, -307, -315, -317, -310, -307, -315, -317, -310, -310, -312, -315, -317, -317, -315, -307, -303, -305, -310, -305, -307, -310, -303, -307, -305, -286, -293, -312, -291, -276, -305, -320, -320, -324, -317, -310, -324, -358, -395, -237, 244, 766, 729, -116, -793, -460, -118, -315, -356, -237, -276, -310, -257, -247, -264])
('ECG', 1751793012879796956, [-244, -227, -225, -215, -196, -186, -186, -174, -157, -162, -169, -157, -152, -177, -201, -213, -237, -281, -320, -356, -392, -414, -412, -421, -443, -448, -431, -419, -429, -426, -419, -414, -400, -385, -388, -383, -383, -395, -392, -375, -373, -380, -380, -380, -385, -383, -375, -371, -375, -380, -378, -368, -363, -368, -368, -363, -363, -363, -358, -361, -368, -361, -344, -341, -349, -349, -337, -334, -344, -339, -332, -339, -346])
('ECG', 1751793013441358674, [-341, -339, -337, -332, -329, -327, -320, -322, -312, -288, -298, -327, -334, -327, -327, -332, -341, -354, -392, -346, 14, 584, 831, 210, -727, -715, -208, -240, -373, -261, -252, -307, -271, -249, -261, -240, -220, -225, -215, -191, -181, -172, -157, -147, -147, -145, -150, -164, -179, -186, -198, -215, -252, -305, -349, -366, -395, -426, -438, -443, -448, -438, -429, -429, -426, -419, -414, -409, -395, -397, -404, -395, -388])
('ECG', 1751793014002910218, [-388, -388, -383, -378, -383, -380, -388, -392, -383, -380, -383, -380, -371, -356, -358, -371, -363, -349, -356, -366, -361, -354, -354, -356, -351, -344, -351, -361, -346, -337, -346, -346, -341, -354, -358, -341, -327, -329, -329, -320, -320, -329, -334, -349, -366, -363, -351, -351, -368, -424, -371, 31, 620, 809, 82, -836, -720, -232, -310, -397, -274, -281, -332, -288, -274, -286, -266, -244, -237, -225, -210, -198, -196])
('ECG', 1751793014564477022, [-194, -184, -172, -167, -167, -177, -181, -191, -223, -254, -283, -327, -371, -409, -438, -451, -460, -468, -472, -472, -468, -458, -451, -453, -443, -438, -443, -434, -421, -421, -419, -412, -407, -404, -407, -409, -404, -407, -409, -402, -395, -392, -390, -390, -392, -390, -383, -385, -395, -392, -388, -383, -375, -356, -346, -361, -366, -368, -378, -380, -375, -378, -397, -412, -395, -375, -378, -378, -368, -373, -390, -407, -409])
('ECG', 1751793015126013310, [-395, -392, -402, -412, -453, -424, -75, 514, 836, 286, -727, -819, -259, -254, -438, -327, -288, -361, -334, -286, -286, -286, -266, -244, -237, -227, -201, -184, -174, -157, -147, -140, -138, -145, -152, -157, -177, -215, -264, -310, -354, -397, -429, -448, -460, -465, -470, -470, -460, -460, -460, -441, -424, -426, -419, -404, -409, -421, -414, -402, -407, -402, -390, -392, -388, -375, -383, -402, -400, -385, -380, -388, -390])
('ECG', 1751793015687575028, [-390, -392, -397, -392, -368, -349, -349, -349, -354, -354, -344, -356, -373, -383, -378, -356, -351, -356, -358, -346, -344, -371, -375, -363, -375, -383, -375, -397, -455, -383, 33, 640, 865, 135, -899, -851, -288, -354, -506, -375, -366, -438, -400, -380, -404, -380, -341, -334, -329, -310, -305, -293, -242, -218, -232, -235, -220, -210, -220, -244, -271, -295, -332, -397, -460, -497, -535, -572, -572, -560, -565, -555, -550])
('ECG', 1751793016249116400, [-562, -550, -533, -533, -526, -516, -514, -506, -504, -506, -494, -487, -489, -487, -470, -455, -465, -468, -448, -436, -448, -455, -453, -455, -455, -446, -443, -448, -441, -429, -429, -436, -443, -434, -419, -424, -431, -417, -388, -373, -378, -378, -388, -409, -407, -388, -385, -397, -397, -424, -477, -378, 75, 679, 846, 50, -926, -790, -274, -337, -419, -305, -312, -358, -317, -291, -298, -283, -261, -252, -240, -225, -208])
('ECG', 1751793016810667946, [-186, -172, -164, -150, -143, -147, -147, -150, -177, -215, -237, -274, -341, -402, -436, -465, -499, -514, -514, -511, -506, -506, -494, -470, -470, -475, -465, -458, -455, -455, -453, -438, -434, -438, -426, -421, -431, -429, -412, -407, -421, -429, -417, -409, -412, -414, -417, -412, -402, -407, -412, -402, -392, -388, -390, -395, -385, -366, -354, -354, -361, -371, -375, -375, -366, -351, -346, -354, -383, -438, -373, 53, 705])
('ECG', 1751793017372229664, [962, 181, -892, -809, -240, -291, -400, -266, -261, -322, -283, -249, -257, -247, -223, -210, -196, -172, -160, -155, -135, -118, -113, -106, -99, -99, -111, -143, -177, -213, -264, -322, -373, -417, -455, -475, -470, -472, -485, -480, -472, -482, -489, -477, -448, -426, -438, -453, -431, -409, -421, -429, -417, -417, -426, -424, -412, -404, -407, -417, -417, -409, -402, -407, -407, -402, -404, -400, -392, -400, -404, -402, -397])
('ECG', 1751793017933786294, [-397, -402, -407, -407, -400, -385, -375, -366, -361, -368, -373, -378, -380, -388, -390, -380, -402, -472, -402, 46, 686, 960, 252, -860, -858, -244, -271, -434, -305, -281, -346, -307, -271, -283, -276, -252, -237, -223, -208, -194, -172, -155, -152, -145, -135, -128, -128, -133, -138, -164, -213, -276, -337, -395, -441, -468, -487, -509, -516, -502, -502, -511, -509, -499, -494, -487, -480, -480, -475, -468, -468, -463, -455])
('ECG', 1751793018495353098, [-453, -451, -441, -438, -438, -436, -438, -438, -436, -438, -438, -426, -421, -431, -424, -414, -419, -417, -402, -402, -407, -409, -404, -407, -419, -404, -378, -378, -378, -363, -363, -392, -409, -397, -373, -371, -380, -390, -429, -460, -220, 392, 962, 768, -351, -999, -458, -150, -414, -388, -254, -329, -349, -276, -266, -274, -254, -249, -244, -213, -174, -150, -143, -133, -113, -97, -87, -84, -89, -99, -118, -155, -215])
('ECG', 1751793019056889386, [-278, -334, -380, -412, -434, -453, -460, -455, -458, -458, -448, -436, -429, -426, -417, -407, -407, -400, -392, -395, -402, -407, -390, -356, -346, -366, -373, -349, -339, -356, -361, -351, -346, -344, -341, -351, -356, -332, -307, -307, -324, -329, -322, -310, -312, -327, -329, -315, -310, -310, -300, -295, -305, -298, -288, -281, -261, -261, -291, -303, -291, -283, -286, -291, -310, -363, -298, 116, 746, 1067, 465, -606, -693])
('ECG', 1751793019618446018, [-123, -155, -354, -225, -179, -249, -210, -169, -181, -169, -147, -138, -121, -101, -82, -65, -50, -36, -26, -14, -2, 9, 4, -19, -50, -87, -147, -213, -261, -300, -337, -363, -373, -375, -378, -375, -378, -378, -368, -358, -349, -334, -337, -344, -337, -327, -320, -317, -322, -329, -320, -312, -322, -332, -320, -312, -320, -317, -310, -303, -310, -327, -322, -312, -322, -324, -307, -300, -307, -315, -312, -305, -305])
('ECG', 1751793020180007736, [-305, -307, -307, -315, -312, -303, -298, -300, -310, -315, -303, -298, -310, -307, -293, -288, -288, -278, -259, -259, -283, -305, -305, -300, -303, -300, -303, -354, -397, -186, 390, 962, 875, -140, -860, -419, -84, -339, -351, -218, -281, -317, -264, -261, -261, -220, -206, -213, -198, -172, -145, -135, -140, -128, -104, -99, -104, -106, -121, -130, -138, -181, -244, -293, -332, -368, -402, -414, -419, -436, -443, -436, -429])
('ECG', 1751793020741559280, [-421, -419, -414, -395, -378, -388, -390, -361, -349, -363, -368, -363, -363, -363, -358, -354, -358, -361, -358, -361, -361, -354, -349, -356, -358, -346, -339, -341, -339, -337, -344, -349, -349, -346, -334, -334, -339, -334, -329, -327, -327, -327, -322, -317, -315, -307, -310, -317, -305, -300, -310, -307, -303, -300, -291, -274, -269, -278, -276, -264, -269, -281, -286, -283, -288, -293, -288, -291, -329, -380, -218, 320, 936])
('ECG', 1751793021303100654, [967, -4, -868, -499, -63, -288, -341, -194, -240, -286, -223, -201, -223, -210, -186, -177, -169, -150, -138, -133, -116, -99, -97, -94, -87, -82, -87, -109, -135, -164, -213, -274, -320, -349, -380, -407, -412, -417, -426, -429, -419, -412, -409, -404, -390, -383, -380, -371, -368, -373, -366, -356, -361, -361, -346, -344, -351, -351, -349, -346, -341, -337, -332, -329, -329, -329, -332, -334, -324, -317, -320, -320, -317])
('ECG', 1751793021864631854, [-320, -317, -303, -303, -315, -317, -303, -293, -295, -295, -288, -288, -295, -295, -288, -291, -288, -281, -288, -293, -278, -269, -278, -278, -257, -257, -276, -288, -291, -295, -298, -298, -295, -312, -383, -346, 72, 734, 1086, 504, -577, -693, -143, -179, -390, -276, -232, -303, -271, -232, -252, -240, -210, -206, -201, -186, -174, -157, -138, -126, -116, -109, -109, -104, -104, -111, -138, -177, -218, -266, -317, -354, -388])
('ECG', 1751793022426193572, [-417, -429, -436, -441, -436, -429, -421, -419, -417, -409, -397, -390, -385, -378, -371, -371, -368, -363, -361, -356, -349, -349, -354, -351, -346, -346, -349, -346, -339, -329, -329, -329, -332, -327, -320, -327, -334, -324, -322, -324, -322, -315, -310, -315, -317, -312, -310, -312, -315, -312, -307, -307, -310, -312, -310, -303, -305, -305, -300, -298, -303, -305, -305, -305, -293, -281, -291, -303, -303, -305, -312, -310, -295])
('ECG', 1751793022987755290, [-310, -373, -388, -99, 514, 1020, 771, -266, -778, -293, -104, -366, -334, -232, -303, -305, -247, -252, -257, -235, -225, -210, -184, -167, -160, -140, -121, -113, -106, -97, -94, -99, -109, -118, -143, -189, -242, -291, -334, -368, -392, -404, -412, -421, -419, -419, -421, -409, -395, -397, -395, -388, -380, -375, -371, -368, -368, -363, -368, -375, -371, -366, -363, -356, -356, -358, -351, -349, -351, -346, -346, -351, -346])
('ECG', 1751793023549301748, [-337, -334, -339, -339, -337, -339, -341, -341, -334, -334, -341, -339, -334, -334, -324, -320, -329, -334, -324, -315, -315, -324, -324, -317, -315, -315, -312, -320, -317, -312, -310, -312, -317, -305, -293, -305, -320, -324, -334, -337, -327, -329, -361, -417, -349, 65, 693, 1011, 392, -666, -708, -145, -227, -441, -307, -274, -349, -315, -278, -286, -257, -230, -237, -230, -201, -181, -177, -164, -143, -126, -123, -121, -121])
('ECG', 1751793024110848208, [-126, -135, -157, -181, -223, -276, -320, -361, -392, -407, -412, -431, -446, -434, -417, -421, -424, -409, -390, -385, -388, -383, -373, -371, -368, -361, -358, -366, -361, -346, -346, -358, -354, -344, -341, -341, -332, -324, -324, -327, -320, -320, -320, -317, -315, -305, -300, -305, -295, -286, -295, -303, -300, -307, -310, -300, -291, -293, -295, -295, -286, -271, -276, -288, -286, -278, -281, -276, -261, -259, -276, -264, -235])
('ECG', 1751793024672404838, [-244, -271, -269, -266, -266, -264, -269, -293, -346, -344, -26, 589, 1025, 599, -480, -768, -189, -99, -351, -252, -143, -223, -237, -196, -215, -215, -164, -145, -160, -152, -135, -130, -121, -104, -89, -72, -63, -70, -82, -97, -116, -135, -167, -223, -274, -307, -346, -380, -392, -404, -409, -392, -383, -388, -373, -373, -383, -363, -351, -354, -349, -356, -351, -324, -332, -339, -295, -274, -298, -307, -307, -320, -312])
('ECG', 1751793025233941126, [-293, -274, -266, -283, -295, -295, -312, -315, -283, -269, -283, -283, -283, -295, -303, -310, -298, -269, -278, -303, -276, -264, -288, -281, -257, -269, -291, -283, -261, -259, -271, -274, -266, -261, -266, -271, -252, -227, -244, -264, -264, -271, -286, -281, -264, -283, -339, -266, 126, 683, 906, 271, -654, -601, -104, -198, -356, -240, -225, -286, -254, -218, -220, -203, -184, -184, -184, -164, -140, -133, -123, -104, -89])
('ECG', 1751793025795502844, [-82, -84, -89, -94, -104, -121, -155, -203, -254, -300, -346, -390, -412, -421, -431, -438, -438, -438, -438, -429, -412, -397, -392, -395, -392, -383, -371, -361, -363, -363, -351, -349, -351, -346, -339, -341, -341, -334, -337, -344, -337, -329, -334, -337, -334, -337, -334, -327, -327, -332, -329, -320, -310, -312, -324, -324, -312, -310, -315, -310, -307, -310, -312, -310, -310, -307, -307, -310, -305, -293, -291, -291, -283])
('ECG', 1751793026357044216, [-269, -274, -300, -312, -312, -317, -317, -310, -317, -354, -375, -162, 375, 877, 691, -300, -860, -390, -118, -327, -298, -201, -271, -281, -227, -230, -227, -196, -181, -181, -167, -140, -123, -118, -104, -99, -113, -109, -92, -89, -106, -126, -147, -184, -232, -281, -315, -346, -375, -390, -400, -407, -409, -414, -417, -402, -388, -392, -400, -402, -404, -397, -375, -366, -373, -371, -366, -368, -363, -361, -371, -375, -373])
('ECG', 1751793026918595762, [-368, -358, -354, -361, -366, -356, -349, -361, -366, -351, -337, -332, -339, -346, -337, -322, -315, -310, -307, -317, -320, -315, -312, -312, -303, -295, -312, -322, -307, -305, -310, -310, -312, -305, -281, -266, -293, -298, -261, -266, -307, -310, -298, -300, -303, -307, -322, -361, -373, -113, 458, 899, 584, -417, -829, -339, -172, -378, -315, -240, -310, -300, -257, -271, -266, -242, -235, -215, -191, -179, -172, -155, -133])
('ECG', 1751793027480126962, [-113, -101, -94, -92, -97, -104, -113, -145, -177, -223, -293, -329, -346, -385, -414, -419, -417, -414, -402, -395, -404, -404, -392, -373, -356, -351, -358, -361, -344, -334, -344, -344, -329, -332, -337, -322, -310, -322, -329, -324, -327, -329, -322, -320, -317, -315, -317, -315, -305, -303, -305, -305, -312, -317, -307, -303, -303, -298, -303, -307, -300, -295, -300, -293, -291, -298, -298, -288, -278, -274, -278, -288, -269])
('ECG', 1751793028041688680, [-254, -274, -286, -300, -320, -310, -293, -300, -329, -368, -276, 121, 652, 812, 133, -729, -628, -179, -261, -363, -247, -240, -286, -254, -230, -235, -220, -203, -196, -184, -174, -169, -145, -109, -92, -89, -80, -77, -84, -92, -101, -123, -155, -201, -257, -312, -356, -385, -400, -412, -417, -421, -431, -434, -429, -431, -434, -429, -426, -421, -407, -404, -400, -383, -378, -388, -390, -378, -375, -385, -392, -383, -368])
('ECG', 1751793028603219880, [-358, -346, -346, -375, -385, -356, -341, -349, -351, -349, -344, -339, -337, -332, -332, -339, -344, -349, -354, -337, -317, -317, -315, -312, -324, -339, -341, -337, -322, -307, -295, -286, -293, -307, -295, -291, -312, -324, -322, -327, -329, -327, -327, -351, -392, -283, 155, 705, 858, 157, -732, -615, -145, -249, -371, -254, -254, -312, -274, -242, -249, -223, -198, -208, -203, -191, -179, -138, -92, -77, -109, -143, -130])
('ECG', 1751793029164781598, [-101, -97, -121, -160, -184, -210, -266, -327, -363, -383, -392, -402, -429, -453, -448, -424, -395, -390, -402, -404, -395, -383, -373, -366, -356, -337, -354, -388, -361, -339, -385, -397, -363, -341, -327, -324, -344, -349, -337, -332, -327, -320, -324, -341, -356, -341, -312, -310, -320, -317, -317, -317, -322, -337, -332, -315, -320, -334, -337, -332, -322, -317, -327, -327, -322, -324, -315, -312, -324, -310, -288, -293, -305])
('ECG', 1751793029726322970, [-324, -332, -312, -305, -312, -339, -402, -329, 84, 659, 921, 337, -647, -708, -198, -223, -371, -252, -223, -293, -264, -230, -247, -242, -210, -194, -172, -143, -138, -152, -150, -116, -99, -111, -128, -111, -65, -72, -128, -169, -213, -264, -305, -339, -371, -400, -424, -429, -417, -421, -434, -431, -407, -402, -417, -412, -397, -392, -388, -375, -366, -361, -356, -349, -366, -385, -371, -351, -358, -368, -344, -317, -327])
('ECG', 1751793030287874516, [-351, -356, -349, -332, -307, -307, -337, -358, -354, -344, -334, -320, -315, -315, -303, -300, -312, -310, -288, -274, -293, -312, -307, -300, -298, -288, -283, -293, -278, -257, -266, -286, -298, -303, -291, -281, -291, -312, -351, -261, 179, 800, 1006, 223, -763, -606, -92, -242, -383, -247, -227, -266, -227, -213, -230, -223, -210, -191, -174, -184, -172, -118, -94, -101, -80, -65, -77, -65, -70, -111, -123, -135, -198])
('ECG', 1751793030849426060, [-264, -300, -341, -368, -375, -397, -417, -404, -392, -402, -395, -383, -397, -400, -368, -339, -349, -366, -361, -351, -351, -358, -351, -332, -324, -324, -320, -327, -346, -344, -327, -327, -334, -332, -329, -332, -320, -300, -305, -317, -320, -327, -332, -312, -295, -291, -288, -291, -300, -305, -300, -300, -310, -310, -303, -291, -269, -266, -278, -286, -288, -278, -274, -288, -307, -320, -324, -305, -295, -320, -358, -358, -133])
('ECG', 1751793031410967434, [390, 892, 768, -196, -843, -409, -99, -344, -351, -218, -293, -332, -249, -213, -223, -220, -201, -177, -164, -167, -157, -133, -113, -89, -72, -65, -65, -70, -75, -80, -104, -135, -198, -281, -317, -329, -371, -400, -412, -429, -431, -421, -419, -404, -373, -385, -421, -390, -339, -368, -400, -361, -334, -351, -356, -344, -310, -295, -334, -354, -332, -332, -354, -339, -303, -320, -351, -334, -320, -346, -339, -298, -307])
('ECG', 1751793031972498634, [-344, -322, -293, -305, -317, -312, -305, -312, -324, -312, -286, -295, -312, -303, -298, -291, -291, -276, -244, -271, -312, -300, -293, -324, -324, -283, -288, -361, -392, -210, 288, 902, 1016, 65, -936, -618, -55, -247, -375, -225, -230, -300, -269, -220, -213, -210, -196, -179, -169, -152, -133, -116, -101, -77, -58, -55, -48, -31, -41, -70, -94, -130, -196, -261, -315, -363, -395, -404, -414, -436, -446, -441, -431])
('ECG', 1751793032534060352, [-424, -421, -419, -407, -404, -404, -383, -373, -383, -378, -375, -380, -366, -344, -358, -373, -366, -363, -366, -358, -354, -349, -341, -351, -363, -351, -337, -337, -339, -341, -334, -324, -320, -322, -324, -322, -327, -332, -312, -288, -295, -307, -303, -300, -312, -310, -300, -303, -307, -293, -271, -266, -278, -298, -317, -324, -310, -295, -305, -346, -400, -286, 203, 858, 1079, 291, -759, -640, -87, -242, -409, -259, -252])
('ECG', 1751793033095591552, [-312, -266, -247, -247, -203, -189, -194, -167, -150, -157, -118, -72, -84, -101, -53, -2, -26, -58, -46, -43, -77, -145, -240, -307, -322, -332, -383, -417, -429, -448, -438, -419, -436, -426, -368, -356, -397, -402, -380, -380, -392, -383, -366, -358, -356, -341, -332, -344, -361, -361, -358, -371, -361, -337, -332, -324, -315, -332, -337, -324, -334, -337, -315, -320, -341, -334, -307, -283, -283, -300, -305, -312, -320])
('ECG', 1751793033657138010, [-307, -291, -274, -266, -281, -286, -266, -266, -283, -254, -225, -244, -269, -269, -276, -288, -286, -274, -305, -337, -128, 417, 970, 960, 9, -829, -446, -21, -300, -373, -189, -242, -324, -249, -206, -240, -230, -191, -179, -172, -152, -111, -80, -94, -109, -75, -43, -58, -48, -2, -21, -82, -118, -174, -259, -315, -339, -363, -395, -424, -434, -438, -443, -421, -397, -412, -426, -404, -397, -412, -404, -388, -385])
('ECG', 1751793034218684470, [-390, -390, -385, -375, -371, -371, -366, -361, -358, -371, -373, -337, -315, -334, -339, -329, -332, -332, -320, -315, -320, -315, -307, -310, -305, -300, -307, -303, -295, -295, -291, -288, -295, -295, -295, -293, -291, -293, -288, -266, -257, -266, -286, -298, -298, -298, -303, -303, -303, -322, -380, -373, -46, 572, 1030, 700, -395, -875, -327, -113, -361, -317, -210, -274, -278, -220, -203, -203, -201, -194, -169, -145, -133])
('ECG', 1751793034780215670, [-123, -104, -80, -60, -55, -43, -33, -38, -48, -72, -121, -167, -225, -303, -351, -375, -412, -446, -446, -438, -451, -460, -460, -453, -436, -431, -434, -424, -409, -397, -392, -385, -356, -351, -373, -368, -349, -351, -346, -341, -346, -334, -324, -339, -344, -334, -322, -303, -303, -320, -310, -293, -291, -291, -295, -298, -274, -274, -310, -307, -271, -247, -244, -281, -295, -244, -223, -257, -240, -203, -220, -237, -242])
('ECG', 1751793035341777386, [-274, -283, -254, -237, -254, -281, -305, -157, 363, 1045, 1181, 162, -902, -562, -2, -215, -278, -138, -244, -264, -145, -162, -213, -181, -128, -111, -130, -121, -87, -65, -26, 9, 21, 29, 38, 9, -46, -58, -26, -67, -152, -194, -266, -339, -356, -371, -390, -414, -436, -436, -414, -397, -383, -356, -368, -402, -404, -388, -354, -334, -324, -295, -310, -356, -324, -303, -329, -298, -252, -288, -317, -264, -257])
('ECG', 1751793035903308588, [-291, -266, -266, -291, -271, -264, -276, -249, -244, -276, -281, -281, -283, -259, -254, -257, -235, -257, -276, -247, -259, -283, -244, -198, -186, -194, -215, -232, -215, -235, -288, -264, -213, -225, -242, -264, -291, -65, 574, 1278, 1244, 2, -967, -424, 46, -288, -339, -150, -172, -186, -160, -213, -189, -121, -172, -162, -55, -55, -92, -58, -29, -2, 29, 9, -12, 31, 36, -43, -75, -48, -116, -227, -274])
('ECG', 1751793036464839788, [-312, -385, -426, -414, -407, -397, -385, -407, -419, -392, -373, -351, -334, -368, -354, -300, -327, -356, -329, -317, -320, -320, -300, -286, -320, -317, -276, -293, -315, -283, -281, -307, -300, -278, -271, -269, -264, -269, -276, -286, -281, -252, -261, -315, -317, -252, -230, -247, -249, -242, -235, -227, -240, -266, -274, -254, -264, -293, -307, -358, -278, 276, 1076, 1360, 470, -754, -676, -50, -150, -305, -162, -138, -177])
('ECG', 1751793037026370988, [-143, -140, -164, -145, -109, -89, -77, -50, -16, 0, 14, 19, 2, 14, 38, 29, 4, -9, -19, -50, -135, -230, -286, -337, -390, -407, -400, -424, -455, -458, -455, -458, -451, -441, -438, -431, -412, -414, -407, -349, -320, -356, -385, -390, -402, -392, -366, -351, -303, -259, -310, -368, -358, -332, -324, -329, -334, -307, -269, -293, -344, -305, -235, -261, -341, -324, -240, -242, -305, -293, -244, -271, -286])
('ECG', 1751793037587922532, [-218, -194, -240, -269, -261, -240, -249, -288, -317, -307, -276, -189, 218, 897, 1222, 465, -717, -712, -50, -92, -346, -254, -179, -269, -286, -184, -123, -172, -210, -155, -123, -138, -94, -63, -97, -63, 33, 31, -41, -31, 0, -31, -33, -65, -184, -210, -230, -375, -429, -356, -388, -502, -504, -409, -417, -485, -446, -404, -412, -361, -351, -421, -434, -397, -404, -451, -419, -337, -344, -385, -371, -368, -400])
('ECG', 1751793038149463906, [-419, -421, -434, -436, -421, -446, -446, -378, -373, -414, -392, -390, -446, -446, -397, -412, -429, -380, -361, -402, -436, -448, -426, -417, -429, -368, -329, -390, -414, -419, -448, -431, -395, -395, -424, -489, -511, -235, 424, 1091, 1020, -196, -1134, -613, -133, -404, -426, -252, -327, -390, -288, -227, -244, -230, -201, -201, -177, -143, -140, -113, -63, -48, -50, -41, -24, -9, -29, -67, -101, -155, -232, -320, -373])
('ECG', 1751793038710995106, [-390, -443, -475, -455, -477, -514, -497, -477, -506, -506, -480, -480, -475, -446, -441, -451, -441, -434, -441, -438, -431, -429, -429, -431, -441, -455, -443, -412, -392, -397, -402, -400, -404, -404, -395, -385, -380, -373, -361, -349, -344, -351, -354, -344, -339, -339, -327, -310, -327, -368, -368, -329, -317, -332, -329, -368, -470, -371, 225, 1050, 1362, 426, -911, -809, -82, -201, -392, -210, -189, -266, -218, -177, -194])
('ECG', 1751793039272556824, [-177, -143, -135, -109, -67, -58, -46, -16, 12, 55, 87, 84, 65, 43, 29, 9, -38, -116, -191, -257, -317, -361, -388, -400, -395, -400, -412, -400, -380, -392, -397, -361, -337, -349, -351, -337, -332, -324, -317, -310, -305, -307, -315, -307, -295, -281, -274, -276, -281, -286, -286, -281, -286, -281, -269, -269, -266, -261, -276, -288, -293, -295, -286, -274, -281, -286, -278, -271, -257, -215, -198, -218, -227])
('ECG', 1751793039834098196, [-225, -244, -266, -264, -266, -259, -240, -288, -390, -220, 426, 1183, 1319, 264, -865, -538, 33, -240, -358, -160, -198, -274, -206, -177, -206, -191, -150, -135, -123, -111, -87, -53, -58, -41, 16, 9, -4, 31, 9, -31, -24, -89, -194, -230, -276, -346, -380, -421, -489, -463, -412, -441, -443, -404, -404, -407, -371, -388, -431, -383, -363, -407, -356, -307, -361, -371, -329, -341, -366, -344, -320, -329, -337])
('ECG', 1751793040395649742, [-329, -344, -349, -307, -298, -341, -344, -307, -295, -300, -300, -305, -310, -291, -274, -283, -274, -247, -266, -274, -254, -257, -264, -254, -242, -232, -218, -206, -235, -259, -244, -232, -244, -249, -242, -261, -341, -291, 198, 982, 1416, 712, -611, -737, -33, -65, -327, -181, -128, -223, -186, -135, -150, -138, -104, -89, -82, -65, -53, -43, -24, 2, 16, 16, 16, 24, 24, 7, -16, -58, -123, -181, -240])
('ECG', 1751793040957201286, [-310, -356, -378, -409, -436, -434, -429, -421, -400, -383, -380, -371, -363, -366, -356, -344, -341, -346, -344, -332, -329, -327, -317, -307, -310, -320, -315, -305, -305, -312, -320, -312, -305, -315, -320, -312, -307, -307, -300, -295, -291, -286, -295, -317, -310, -286, -278, -278, -274, -276, -288, -286, -264, -244, -247, -237, -237, -266, -278, -257, -244, -261, -281, -281, -327, -298, 130, 856, 1244, 565, -679, -802, -126])
('ECG', 1751793041518742660, [-111, -339, -230, -189, -269, -235, -181, -191, -181, -133, -111, -109, -94, -77, -75, -70, -43, -26, -24, -12, 0, -14, -55, -84, -104, -157, -230, -269, -293, -329, -361, -390, -414, -419, -409, -388, -366, -368, -378, -368, -349, -356, -358, -332, -327, -354, -368, -363, -356, -358, -361, -354, -351, -346, -339, -334, -334, -349, -368, -361, -344, -344, -320, -291, -310, -334, -341, -349, -324, -286, -303, -329, -310])
('ECG', 1751793042080304376, [-303, -315, -293, -269, -278, -264, -232, -254, -281, -269, -259, -247, -235, -244, -261, -307, -278, 89, 737, 1130, 586, -550, -778, -172, -63, -264, -186, -138, -208, -174, -116, -143, -155, -109, -92, -116, -97, -46, -21, -12, 7, 36, 41, 14, 4, 2, -9, -24, -70, -121, -155, -206, -257, -295, -337, -356, -337, -341, -361, -368, -380, -385, -358, -334, -332, -329, -329, -346, -358, -346, -327, -334, -363])
('ECG', 1751793042641835578, [-349, -317, -334, -344, -310, -317, -346, -312, -286, -315, -320, -303, -312, -322, -317, -315, -293, -276, -283, -295, -300, -305, -295, -281, -276, -269, -252, -247, -259, -281, -291, -283, -274, -271, -276, -307, -361, -244, 259, 921, 1084, 198, -812, -599, -72, -203, -288, -150, -169, -223, -179, -160, -164, -143, -126, -126, -109, -87, -75, -65, -50, -38, -29, -21, -14, -12, -19, -43, -77, -118, -177, -240, -288])
('ECG', 1751793043203397296, [-320, -346, -373, -385, -388, -390, -390, -390, -385, -368, -358, -356, -349, -339, -334, -327, -327, -332, -320, -317, -327, -327, -322, -312, -310, -322, -317, -305, -315, -317, -303, -300, -303, -307, -315, -293, -278, -298, -288, -264, -293, -312, -295, -295, -303, -274, -240, -230, -249, -274, -283, -281, -283, -295, -305, -295, -324, -322, 16, 696, 1139, 618, -555, -814, -203, -121, -337, -227, -164, -254, -230, -167, -169])
('ECG', 1751793043764928496, [-167, -150, -152, -147, -113, -97, -104, -89, -65, -50, -38, -38, -33, -14, -24, -67, -111, -150, -213, -283, -317, -334, -361, -380, -388, -404, -431, -424, -378, -363, -392, -395, -373, -356, -361, -402, -402, -320, -288, -339, -361, -356, -356, -346, -341, -344, -351, -349, -327, -329, -351, -339, -329, -337, -327, -317, -312, -303, -315, -324, -329, -327, -312, -307, -303, -295, -295, -293, -274, -261, -278, -266, -257])
('ECG', 1751793044326459696, [-288, -274, -235, -242, -266, -283, -288, -334, -303, 162, 923, 1316, 645, -613, -783, -135, -143, -349, -164, -123, -254, -215, -160, -189, -167, -130, -138, -130, -116, -99, -46, -21, -36, -24, -2, 0, 7, 4, -38, -77, -97, -121, -169, -247, -307, -341, -375, -397, -400, -397, -412, -426, -409, -388, -383, -385, -383, -368, -351, -361, -361, -344, -339, -354, -351, -329, -341, -373, -363, -346, -346, -334, -312])
('ECG', 1751793044888016326, [-307, -305, -298, -288, -300, -312, -300, -300, -307, -293, -283, -276, -257, -264, -288, -288, -283, -288, -278, -264, -254, -240, -237, -249, -254, -261, -283, -278, -266, -283, -315, -324, -128, 409, 1016, 1050, 60, -836, -465, -19, -249, -324, -181, -194, -242, -232, -215, -189, -160, -150, -140, -130, -128, -118, -87, -41, -14, -21, -19, -4, -24, -41, -19, -43, -128, -169, -194, -257, -320, -361, -368, -371, -390])
('ECG', 1751793045449552612, [-390, -385, -397, -371, -332, -363, -385, -334, -310, -332, -339, -337, -329, -310, -303, -315, -332, -332, -291, -288, -322, -298, -288, -327, -300, -249, -261, -278, -271, -281, -276, -276, -303, -274, -225, -266, -303, -257, -230, -264, -259, -194, -186, -254, -307, -276, -220, -247, -266, -242, -307, -351, -2, 742, 1319, 897, -419, -906, -261, -75, -307, -181, -97, -220, -206, -130, -147, -143, -97, -97, -106, -70, -41])
('ECG', 1751793046011083814, [-29, -4, 12, 9, 21, 48, 41, 14, 4, 0, -19, -63, -155, -254, -298, -315, -351, -368, -358, -368, -383, -373, -361, -368, -368, -356, -356, -341, -317, -320, -322, -312, -312, -310, -303, -300, -310, -317, -310, -298, -295, -300, -295, -298, -303, -298, -291, -288, -291, -298, -298, -276, -247, -249, -281, -293, -283, -281, -276, -276, -281, -252, -210, -227, -271, -274, -261, -264, -266, -278, -307, -346, -356])
('ECG', 1751793046572625186, [-97, 552, 1188, 1037, -140, -911, -392, -31, -303, -307, -181, -232, -220, -140, -152, -184, -162, -145, -145, -118, -87, -82, -70, -29, -16, -29, -19, -12, -24, -36, -63, -116, -155, -184, -249, -324, -356, -373, -414, -455, -448, -404, -385, -397, -426, -431, -383, -346, -378, -400, -378, -392, -412, -380, -358, -363, -344, -303, -278, -310, -361, -354, -327, -322, -324, -344, -356, -320, -291, -322, -354, -320, -274])
('ECG', 1751793047134176732, [-298, -361, -373, -329, -303, -303, -293, -288, -288, -298, -324, -332, -315, -300, -278, -278, -320, -380, -315, 135, 846, 1185, 436, -759, -778, -155, -189, -339, -186, -184, -271, -203, -147, -177, -162, -143, -140, -89, -55, -67, -29, 16, 7, 21, 36, -4, -4, 19, -19, -70, -80, -135, -247, -295, -278, -312, -371, -356, -315, -337, -371, -354, -332, -334, -341, -351, -339, -298, -286, -312, -303, -281, -293])
('ECG', 1751793047695707932, [-310, -307, -276, -252, -278, -293, -283, -291, -276, -252, -266, -293, -283, -266, -274, -286, -278, -266, -271, -281, -291, -293, -286, -283, -291, -288, -291, -283, -266, -259, -240, -194, -179, -223, -252, -244, -230, -225, -240, -247, -249, -286, -329, -177, 341, 989, 1154, 274, -749, -533, -31, -210, -298, -155, -198, -257, -194, -164, -169, -145, -121, -116, -116, -106, -72, -36, -26, -19, -2, 7, 12, 24, 14])
('ECG', 1751793048257264562, [-14, -24, -55, -133, -213, -274, -305, -320, -339, -378, -397, -383, -368, -383, -388, -351, -324, -346, -371, -351, -317, -315, -334, -329, -303, -278, -291, -324, -317, -283, -283, -312, -327, -315, -291, -266, -281, -310, -300, -293, -303, -298, -274, -259, -274, -298, -295, -274, -264, -283, -281, -264, -288, -281, -218, -227, -286, -281, -257, -249, -223, -208, -232, -242, -235, -257, -271, -254, -235, -225, -247, -324, -383])
('ECG', 1751793048818800848, [-186, 373, 1030, 1198, 303, -742, -535, -53, -232, -300, -147, -194, -252, -194, -164, -194, -201, -147, -104, -121, -104, -67, -75, -48, -7, -21, -29, -4, 19, 0, -29, -24, -55, -152, -227, -249, -283, -334, -371, -368, -356, -375, -402, -392, -368, -371, -388, -375, -356, -356, -337, -307, -324, -354, -351, -339, -334, -322, -310, -320, -332, -339, -344, -341, -322, -310, -322, -317, -310, -329, -324, -291, -322])
('ECG', 1751793049380332050, [-358, -312, -283, -320, -315, -269, -283, -329, -312, -278, -310, -324, -274, -266, -310, -305, -281, -300, -324, -310, -295, -295, -283, -281, -300, -291, -259, -259, -261, -249, -247, -254, -252, -242, -259, -278, -271, -271, -281, -266, -303, -334, -21, 664, 1214, 890, -286, -795, -244, -75, -329, -244, -140, -230, -230, -169, -179, -181, -145, -128, -128, -106, -77, -75, -70, -43, -29, -16, 2, -2, -16, -9, -12])
('ECG', 1751793049941863250, [-46, -84, -128, -179, -232, -276, -303, -322, -337, -337, -329, -332, -334, -327, -317, -310, -300, -291, -288, -278, -271, -269, -259, -254, -259, -261, -254, -266, -278, -269, -259, -254, -247, -242, -240, -237, -240, -242, -237, -230, -225, -213, -210, -220, -220, -215, -213, -208, -206, -206, -203, -206, -198, -191, -203, -206, -186, -181, -191, -196, -189, -174, -162, -164, -172, -157, -145, -152, -160, -172, -184, -179, -174])
('ECG', 1751793050503409708, [-184, -201, -257, -288, -33, 606, 1244, 1130, -12, -778, -286, 41, -247, -249, -104, -169, -201, -143, -135, -143, -121, -109, -104, -82, -65, -60, -43, -19, -2, 9, 21, 26, 19, 4, -9, -36, -89, -152, -215, -264, -305, -341, -363, -375, -388, -395, -383, -373, -373, -371, -363, -356, -354, -351, -339, -334, -337, -327, -320, -322, -320, -310, -305, -310, -310, -303, -295, -300, -300, -295, -295, -293, -286])
('ECG', 1751793051064956168, [-283, -286, -286, -281, -269, -266, -274, -274, -266, -259, -259, -261, -259, -257, -259, -259, -257, -257, -259, -259, -261, -264, -264, -261, -259, -266, -266, -242, -230, -247, -259, -261, -274, -278, -266, -269, -298, -366, -346, 41, 742, 1227, 766, -419, -751, -172, -109, -368, -274, -198, -278, -261, -210, -225, -215, -177, -169, -167, -145, -126, -113, -92, -72, -58, -43, -29, -24, -29, -38, -50, -82, -138, -196])
('ECG', 1751793051626487368, [-252, -298, -337, -371, -400, -412, -407, -404, -402, -392, -388, -390, -380, -371, -363, -358, -351, -341, -339, -344, -341, -334, -332, -324, -317, -315, -317, -322, -320, -310, -305, -310, -312, -305, -303, -305, -300, -293, -293, -293, -293, -288, -286, -283, -283, -283, -286, -283, -276, -281, -281, -271, -271, -278, -274, -271, -281, -276, -266, -271, -281, -276, -257, -257, -274, -259, -237, -254, -271, -271, -283, -288, -278])
('ECG', 1751793052188018568, [-276, -300, -366, -346, 26, 708, 1178, 739, -414, -751, -177, -109, -380, -288, -206, -288, -271, -213, -220, -220, -198, -179, -167, -155, -147, -128, -104, -92, -82, -65, -58, -53, -48, -53, -72, -101, -147, -203, -261, -312, -349, -378, -400, -409, -414, -409, -404, -397, -390, -378, -373, -371, -363, -356, -351, -339, -334, -344, -346, -334, -329, -332, -332, -334, -337, -334, -329, -327, -324, -322, -320, -317, -312])
('ECG', 1751793052749580286, [-320, -327, -322, -310, -305, -307, -307, -298, -293, -288, -288, -293, -295, -291, -286, -291, -291, -283, -281, -281, -278, -274, -271, -261, -266, -271, -254, -244, -261, -254, -237, -249, -269, -271, -274, -274, -264, -266, -293, -351, -324, 41, 698, 1130, 615, -545, -780, -181, -135, -368, -259, -196, -274, -249, -203, -215, -210, -179, -164, -164, -150, -126, -109, -101, -87, -72, -63, -55, -50, -48, -50, -72, -104])
('ECG', 1751793053311111486, [-145, -198, -254, -305, -344, -373, -397, -414, -419, -412, -409, -412, -409, -388, -378, -371, -349, -341, -349, -341, -334, -337, -339, -332, -324, -329, -327, -315, -315, -324, -320, -307, -315, -317, -307, -307, -312, -310, -303, -298, -295, -300, -303, -300, -298, -291, -286, -291, -295, -291, -283, -281, -283, -286, -281, -274, -276, -281, -276, -269, -276, -281, -269, -247, -254, -269, -261, -252, -259, -259, -261, -276, -281])
('ECG', 1751793053872642686, [-278, -283, -303, -361, -337, 46, 715, 1144, 618, -538, -749, -160, -143, -366, -237, -184, -274, -249, -191, -198, -198, -177, -162, -155, -143, -133, -126, -111, -87, -70, -70, -67, -53, -55, -77, -94, -109, -147, -210, -271, -315, -354, -388, -404, -409, -419, -426, -421, -412, -414, -404, -378, -368, -373, -366, -358, -361, -356, -349, -349, -349, -346, -344, -341, -341, -344, -341, -329, -322, -324, -327, -324, -320])
('ECG', 1751793054434173886, [-320, -320, -315, -310, -315, -315, -307, -300, -298, -291, -283, -291, -293, -293, -291, -288, -286, -291, -291, -281, -276, -278, -283, -276, -269, -274, -276, -259, -254, -269, -264, -247, -259, -274, -271, -283, -288, -274, -274, -295, -356, -349, -24, 615, 1122, 778, -363, -805, -232, -82, -354, -281, -181, -271, -266, -206, -215, -218, -186, -174, -162, -143, -133, -128, -113, -97, -82, -65, -58, -58, -63, -72, -87])
('ECG', 1751793054995705086, [-109, -143, -186, -247, -303, -337, -361, -385, -407, -414, -412, -402, -385, -385, -392, -380, -361, -354, -354, -349, -349, -349, -339, -334, -332, -329, -332, -329, -329, -334, -332, -317, -315, -324, -324, -320, -312, -312, -312, -312, -312, -312, -307, -303, -295, -295, -295, -288, -281, -286, -300, -298, -283, -288, -291, -281, -286, -295, -295, -288, -278, -276, -276, -266, -259, -269, -264, -242, -249, -276, -278, -276, -288])
('ECG', 1751793055557266802, [-286, -276, -293, -351, -380, -143, 460, 1059, 948, -123, -834, -361, -53, -324, -322, -194, -259, -278, -218, -218, -225, -196, -179, -174, -157, -140, -130, -121, -101, -84, -75, -67, -58, -60, -72, -84, -97, -130, -186, -247, -298, -334, -366, -385, -400, -419, -426, -417, -409, -407, -400, -390, -380, -368, -366, -358, -351, -351, -344, -337, -337, -337, -332, -327, -327, -327, -324, -317, -317, -324, -324, -320, -310])
('ECG', 1751793056118798004, [-307, -307, -305, -305, -307, -305, -303, -303, -295, -293, -291, -291, -291, -283, -278, -278, -276, -271, -266, -271, -271, -264, -264, -271, -271, -264, -257, -249, -254, -257, -242, -240, -257, -264, -266, -266, -264, -264, -274, -317, -371, -208, 337, 979, 1084, 160, -773, -468, -16, -254, -337, -179, -215, -266, -210, -191, -198, -177, -162, -157, -135, -118, -111, -99, -80, -67, -60, -46, -38, -33, -36, -58, -87])
('ECG', 1751793056680329204, [-113, -160, -218, -269, -310, -344, -363, -380, -392, -395, -397, -392, -383, -368, -356, -356, -358, -349, -337, -334, -329, -324, -322, -327, -327, -320, -310, -310, -320, -315, -303, -305, -307, -305, -307, -300, -295, -295, -288, -283, -286, -286, -276, -274, -276, -276, -274, -271, -274, -276, -266, -259, -266, -269, -264, -269, -269, -264, -264, -264, -261, -261, -257, -252, -249, -249, -240, -235, -244, -244, -252, -269, -269])
('ECG', 1751793057241860404, [-254, -249, -269, -324, -344, -82, 531, 1105, 921, -177, -797, -286, -38, -317, -293, -172, -249, -261, -191, -194, -210, -177, -152, -157, -145, -123, -111, -101, -82, -60, -46, -38, -36, -38, -46, -60, -89, -126, -167, -220, -281, -327, -351, -368, -383, -390, -395, -390, -392, -392, -375, -361, -366, -366, -358, -351, -341, -337, -339, -341, -334, -327, -329, -327, -324, -324, -324, -317, -317, -322, -310, -303, -315])
('ECG', 1751793057803391604, [-322, -312, -305, -307, -300, -283, -288, -305, -303, -293, -288, -291, -288, -281, -278, -286, -291, -286, -278, -274, -274, -274, -264, -266, -266, -252, -249, -259, -244, -235, -252, -259, -259, -274, -276, -266, -271, -307, -361, -249, 237, 887, 1091, 274, -751, -594, -65, -220, -354, -208, -218, -274, -215, -191, -210, -191, -169, -164, -147, -130, -123, -109, -92, -77, -60, -53, -53, -55, -65, -75, -92, -123, -169])
('ECG', 1751793058364922804, [-220, -276, -324, -361, -385, -400, -404, -404, -404, -407, -397, -388, -378, -371, -366, -354, -346, -346, -341, -334, -327, -324, -324, -324, -327, -324, -320, -315, -315, -320, -312, -305, -305, -307, -303, -298, -303, -305, -298, -295, -298, -295, -291, -291, -288, -283, -278, -278, -278, -276, -276, -281, -281, -276, -269, -269, -274, -271, -271, -271, -269, -269, -261, -261, -271, -254, -237, -249, -264, -276, -283, -269, -261])
('ECG', 1751793058926454004, [-274, -295, -349, -327, 41, 703, 1139, 664, -460, -725, -160, -116, -354, -257, -196, -274, -247, -194, -208, -210, -186, -174, -160, -133, -126, -121, -106, -82, -70, -63, -53, -50, -55, -63, -75, -104, -150, -203, -257, -307, -349, -371, -385, -395, -400, -412, -409, -397, -397, -392, -378, -371, -366, -354, -349, -349, -341, -334, -329, -332, -341, -337, -324, -322, -322, -312, -305, -312, -317, -315, -307, -305, -305])
('ECG', 1751793059487990290, [-300, -293, -291, -295, -293, -286, -283, -281, -278, -276, -271, -266, -269, -269, -269, -269, -266, -264, -269, -266, -261, -261, -269, -264, -242, -237, -257, -259, -235, -230, -247, -259, -264, -269, -266, -261, -271, -317, -356, -121, 487, 1067, 911, -157, -824, -344, -48, -312, -303, -179, -249, -264, -196, -198, -213, -184, -162, -152, -138, -126, -113, -89, -75, -67, -55, -38, -33, -43, -58, -67, -84, -123, -177])
('ECG', 1751793060049526576, [-232, -281, -322, -361, -388, -400, -402, -402, -404, -402, -392, -380, -375, -371, -356, -337, -334, -339, -334, -322, -324, -322, -315, -315, -320, -312, -307, -307, -305, -303, -305, -307, -305, -303, -300, -298, -291, -286, -286, -291, -288, -283, -283, -286, -286, -283, -283, -278, -276, -278, -283, -274, -266, -274, -281, -274, -266, -266, -259, -257, -261, -252, -235, -242, -252, -254, -269, -278, -264, -257, -269, -307, -351])
('ECG', 1751793060611062862, [-174, 385, 1001, 994, 7, -809, -417, -19, -271, -320, -177, -225, -257, -194, -186, -196, -167, -152, -155, -138, -111, -99, -92, -77, -60, -43, -24, -24, -41, -46, -53, -87, -128, -169, -220, -283, -324, -351, -373, -385, -390, -397, -400, -392, -388, -385, -378, -361, -337, -324, -322, -312, -305, -310, -305, -298, -305, -317, -312, -303, -293, -286, -281, -283, -288, -286, -286, -281, -274, -271, -276, -271, -266])
('ECG', 1751793061172599148, [-271, -271, -269, -264, -257, -259, -264, -259, -254, -257, -249, -240, -235, -235, -244, -252, -249, -244, -244, -249, -249, -237, -227, -223, -218, -225, -235, -232, -240, -249, -242, -230, -240, -274, -327, -293, 77, 734, 1156, 628, -506, -703, -113, -99, -322, -210, -167, -244, -208, -172, -196, -181, -143, -138, -126, -106, -94, -82, -65, -60, -53, -33, -19, -16, -19, -36, -50, -72, -118, -179, -232, -283, -329])
('ECG', 1751793061734135434, [-356, -358, -361, -378, -390, -385, -366, -361, -366, -354, -339, -334, -329, -320, -322, -320, -305, -300, -307, -307, -291, -276, -288, -303, -298, -291, -291, -288, -283, -283, -278, -276, -276, -274, -278, -281, -269, -259, -261, -264, -264, -257, -252, -259, -266, -259, -252, -249, -254, -264, -259, -237, -223, -225, -220, -210, -227, -249, -254, -242, -242, -252, -257, -271, -329, -274, 155, 805, 1098, 407, -674, -671, -106])
('ECG', 1751793062295671720, [-164, -317, -184, -172, -247, -203, -162, -179, -169, -138, -126, -118, -99, -82, -65, -53, -46, -31, -14, -14, -24, -26, -33, -58, -94, -140, -203, -259, -298, -329, -356, -371, -373, -380, -383, -378, -378, -368, -356, -363, -363, -344, -332, -324, -322, -324, -324, -315, -307, -310, -307, -307, -310, -307, -300, -298, -295, -293, -291, -288, -286, -291, -288, -281, -278, -278, -276, -276, -274, -269, -271, -274, -271])
('ECG', 1751793062857177490, [-266, -261, -261, -254, -247, -254, -269, -266, -264, -266, -261, -252, -240, -227, -230, -244, -257, -266, -266, -254, -249, -252, -281, -339, -223, 283, 938, 1108, 261, -737, -538, -24, -201, -324, -172, -186, -252, -201, -174, -184, -164, -145, -140, -121, -101, -94, -80, -58, -48, -38, -21, -16, -21, -26, -38, -65, -104, -150, -201, -259, -307, -341, -366, -385, -390, -397, -397, -385, -388, -392, -368, -354, -363])
('ECG', 1751793063418713776, [-361, -346, -344, -339, -329, -322, -324, -324, -317, -305, -300, -305, -300, -295, -293, -283, -281, -283, -281, -283, -281, -271, -269, -276, -276, -266, -259, -259, -257, -254, -261, -261, -254, -252, -259, -252, -244, -244, -249, -252, -249, -244, -242, -247, -252, -257, -249, -235, -225, -220, -213, -218, -240, -252, -247, -237, -235, -240, -264, -327, -295, 77, 732, 1166, 679, -451, -708, -135, -92, -329, -230, -162, -247])
('ECG', 1751793063980250062, [-232, -177, -184, -184, -162, -155, -143, -111, -89, -84, -70, -55, -43, -21, -12, -16, -16, -24, -48, -80, -118, -172, -225, -269, -307, -337, -356, -368, -375, -380, -380, -373, -363, -358, -356, -349, -339, -334, -327, -324, -322, -320, -320, -317, -312, -305, -303, -300, -293, -288, -291, -293, -291, -288, -291, -286, -281, -283, -281, -278, -281, -278, -269, -266, -266, -271, -276, -266, -254, -259, -269, -261, -249])
('ECG', 1751793064541786348, [-247, -252, -252, -257, -261, -259, -242, -230, -232, -232, -215, -213, -235, -252, -247, -240, -242, -242, -252, -312, -322, -7, 630, 1113, 756, -339, -737, -184, -60, -329, -261, -160, -242, -242, -184, -191, -194, -160, -155, -157, -133, -116, -99, -82, -65, -50, -43, -41, -26, -19, -36, -63, -94, -138, -196, -254, -303, -337, -366, -397, -414, -409, -414, -426, -421, -409, -395, -380, -378, -380, -373, -368, -361])
('ECG', 1751793065103297204, [-358, -358, -356, -356, -356, -351, -346, -346, -341, -329, -327, -332, -327, -317, -317, -317, -315, -315, -317, -307, -300, -305, -307, -303, -295, -295, -295, -295, -293, -293, -293, -286, -286, -286, -281, -276, -274, -274, -281, -286, -286, -278, -259, -247, -244, -237, -244, -261, -271, -266, -259, -257, -261, -276, -322, -307, 12, 625, 1074, 679, -400, -732, -179, -75, -320, -244, -160, -230, -223, -184, -198, -191, -152])
('ECG', 1751793065664828404, [-138, -130, -113, -99, -82, -60, -43, -29, -14, -7, -12, -16, -31, -48, -75, -111, -157, -206, -257, -298, -327, -346, -351, -346, -351, -363, -356, -346, -344, -337, -324, -315, -305, -293, -293, -298, -298, -291, -276, -261, -269, -281, -271, -264, -266, -257, -254, -266, -264, -247, -230, -227, -232, -223, -210, -210, -210, -203, -196, -201, -196, -184, -184, -194, -191, -179, -177, -172, -164, -167, -172, -184, -191])
('ECG', 1751793066226359604, [-177, -157, -155, -157, -147, -140, -155, -174, -177, -169, -162, -162, -164, -172, -225, -232, 80, 708, 1132, 669, -431, -717, -155, -29, -196, -106, -67, -138, -109, -65, -84, -75, -36, -26, -19, -7, -2, 9, 26, 33, 46, 63, 63, 55, 46, 31, 7, -14, -43, -109, -177, -203, -230, -271, -295, -307, -315, -305, -303, -322, -332, -312, -288, -278, -274, -274, -278, -278, -276, -271, -259, -249, -259])
('ECG', 1751793066787890804, [-274, -264, -240, -235, -244, -252, -254, -247, -247, -259, -254, -220, -206, -215, -225, -230, -235, -240, -232, -210, -203, -218, -220, -191, -179, -218, -240, -223, -223, -235, -213, -177, -155, -177, -240, -235, -189, -213, -235, -213, -227, -283, -341, -344, -130, 434, 1040, 887, -223, -858, -329, -43, -317, -307, -177, -215, -215, -177, -184, -181, -145, -109, -99, -92, -63, -41, -72, -80, -14, 26, 14, 12, 26])
('ECG', 1751793067349406744, [16, -26, -58, -72, -135, -223, -244, -249, -298, -327, -332, -351, -366, -358, -344, -324, -317, -332, -337, -320, -305, -307, -305, -293, -283, -274, -269, -274, -276, -264, -259, -257, -254, -257, -259, -254, -247, -249, -259, -261, -259, -254, -244, -249, -266, -271, -257, -237, -237, -244, -235, -237, -240, -232, -232, -220, -203, -179, -155, -155, -157, -164, -215, -242, -196, -181, -201, -169, -160, -196, -164, 130, 737])
('ECG', 1751793067910943030, [1214, 710, -523, -761, -72, -7, -276, -143, -58, -186, -164, -94, -145, -140, -75, -72, -82, -38, -7, -36, -33, 12, 19, 9, 33, 55, 53, 38, 12, -16, -72, -150, -196, -210, -254, -312, -349, -346, -317, -322, -358, -363, -346, -337, -329, -317, -310, -305, -300, -295, -293, -293, -291, -286, -283, -281, -286, -295, -303, -305, -298, -298, -312, -320, -312, -300, -303, -324, -332, -312, -307, -332, -329])
('ECG', 1751793068472453886, [-303, -291, -293, -293, -293, -300, -312, -315, -312, -307, -293, -288, -310, -339, -344, -123, 480, 1040, 751, -351, -856, -395, -184, -303, -201, -121, -179, -181, -152, -145, -123, -111, -109, -77, -48, -41, -36, -41, -36, 2, 21, 0, 2, 16, 9, -16, -75, -126, -138, -189, -295, -349, -337, -322, -346, -400, -443, -441, -371, -305, -339, -388, -349, -324, -363, -358, -305, -303, -320, -298, -281, -307, -320])
('ECG', 1751793069033985086, [-305, -310, -322, -310, -276, -281, -327, -286, -232, -283, -298, -249, -244, -237, -191, -198, -237, -223, -203, -210, -201, -179, -164, -167, -198, -210, -201, -208, -225, -208, -167, -184, -230, 2, 550, 1016, 1037, 225, -734, -591, -97, -203, -278, -111, -116, -179, -118, -116, -155, -126, -94, -80, -24, -16, -77, -48, -38, -130, -106, -2, -4, -19, 21, 26, 2, -14, -50, -116, -194, -225, -218, -242, -276])
('ECG', 1751793069595516286, [-269, -261, -305, -315, -232, -225, -278, -244, -242, -300, -271, -210, -264, -327, -242, -179, -295, -351, -271, -281, -307, -278, -288, -266, -227, -283, -310, -281, -329, -358, -261, -225, -288, -278, -242, -266, -281, -278, -281, -276, -286, -310, -283, -247, -269, -310, -354, -383, -312, 0, 601, 1045, 535, -589, -807, -242, -150, -334, -249, -184, -261, -252, -177, -167, -181, -160, -121, -111, -113, -94, -106, -123, -75])
('ECG', 1751793070157027140, [-48, -29, 12, -19, -50, -55, -99, -123, -138, -223, -303, -312, -332, -385, -400, -397, -421, -419, -404, -407, -404, -392, -371, -354, -354, -339, -337, -363, -334, -295, -332, -307, -232, -274, -324, -293, -322, -344, -278, -271, -295, -278, -269, -298, -337, -293, -237, -269, -288, -257, -247, -281, -307, -286, -227, -254, -315, -281, -244, -269, -274, -254, -288, -341, -312, -269, -303, -388, -441, -235, 337, 950, 974])
('ECG', 1751793070718563426, [43, -790, -494, -160, -363, -334, -174, -232, -264, -206, -232, -266, -189, -130, -167, -150, -89, -70, -72, -70, -65, -75, -84, -65, -53, -70, -70, -58, -101, -181, -213, -247, -334, -378, -368, -397, -421, -390, -366, -378, -373, -356, -368, -366, -344, -344, -332, -317, -334, -317, -291, -324, -337, -312, -315, -312, -295, -303, -317, -315, -312, -315, -303, -291, -286, -288, -293, -291, -298, -305, -291, -293, -291])
('ECG', 1751793071280079368, [-240, -242, -305, -291, -252, -266, -244, -198, -215, -269, -257, -210, -247, -291, -286, -278, -242, -249, -327, -113, 523, 1166, 1098, -21, -836, -392, -21, -237, -235, -162, -300, -274, -104, -128, -227, -225, -184, -135, -99, -97, -130, -189, -194, -138, -113, -97, -48, -58, -123, -133, -130, -191, -252, -300, -356, -400, -458, -475, -434, -438, -477, -465, -424, -429, -470, -453, -378, -375, -417, -361, -320, -363, -346])
('ECG', 1751793071841610568, [-303, -310, -305, -276, -286, -312, -283, -244, -249, -266, -276, -266, -247, -271, -269, -215, -244, -291, -213, -157, -220, -271, -215, -143, -147, -169, -186, -215, -218, -191, -196, -210, -184, -167, -198, -271, -332, -104, 528, 1132, 1020, -9, -746, -351, -14, -210, -223, -121, -167, -186, -138, -121, -111, -89, -77, -60, -46, -36, -19, 9, 29, 43, 72, 82, 67, 92, 97, 50, 19, -16, -94, -145, -177])
('ECG', 1751793072403141768, [-254, -315, -317, -322, -346, -351, -334, -320, -324, -327, -320, -310, -298, -288, -298, -283, -266, -286, -295, -283, -276, -271, -274, -271, -269, -276, -281, -283, -281, -261, -261, -271, -264, -252, -247, -249, -257, -261, -274, -274, -257, -259, -259, -242, -240, -249, -244, -230, -220, -235, -257, -247, -235, -247, -252, -254, -300, -310, -26, 562, 1054, 790, -252, -725, -232, -65, -300, -237, -130, -208, -232, -186, -167])
('ECG', 1751793072964672968, [-145, -123, -116, -101, -87, -75, -67, -53, -33, -12, 9, 21, 19, 21, 9, -24, -50, -77, -126, -181, -225, -264, -295, -312, -327, -344, -341, -337, -341, -332, -315, -320, -329, -312, -291, -295, -295, -281, -288, -303, -291, -283, -298, -291, -271, -274, -278, -281, -293, -305, -293, -276, -281, -288, -269, -259, -278, -286, -278, -278, -274, -266, -276, -271, -254, -254, -252, -225, -230, -254, -249, -247, -261])
('ECG', 1751793073526183822, [-261, -259, -281, -334, -320, -14, 562, 1030, 763, -271, -761, -269, -75, -307, -266, -162, -223, -230, -186, -196, -194, -147, -123, -123, -106, -84, -82, -70, -46, -38, -38, -33, -29, -33, -36, -38, -63, -104, -162, -225, -244, -244, -293, -351, -361, -356, -368, -373, -363, -361, -363, -358, -337, -324, -329, -324, -307, -307, -315, -315, -307, -310, -312, -312, -310, -307, -305, -305, -305, -305, -303, -298, -295])
('ECG', 1751793074087704850, [-300, -298, -288, -300, -320, -305, -266, -254, -264, -254, -237, -244, -278, -295, -286, -271, -266, -269, -278, -310, -361, -264, 164, 766, 1008, 288, -725, -652, -140, -225, -346, -220, -215, -276, -237, -206, -215, -203, -186, -177, -143, -109, -109, -116, -101, -94, -101, -77, -36, -41, -75, -77, -87, -130, -172, -218, -278, -332, -366, -371, -368, -390, -407, -397, -388, -404, -417, -378, -351, -366, -361, -337, -332])
('ECG', 1751793074649236050, [-339, -339, -351, -346, -305, -300, -320, -312, -310, -334, -327, -281, -276, -307, -288, -259, -291, -320, -315, -300, -281, -261, -254, -242, -232, -247, -281, -283, -259, -257, -259, -240, -240, -278, -337, -310, 31, 688, 1166, 693, -482, -785, -181, -94, -329, -230, -155, -227, -181, -130, -164, -150, -111, -128, -123, -80, -58, -53, -36, -16, -12, -12, -4, -4, 0, 4, -19, -46, -75, -145, -210, -235, -266])
('ECG', 1751793075210762162, [-300, -303, -312, -346, -356, -334, -322, -322, -315, -315, -320, -307, -274, -247, -261, -295, -303, -283, -269, -274, -261, -240, -244, -261, -259, -232, -218, -242, -266, -249, -223, -230, -244, -232, -223, -230, -210, -186, -206, -198, -160, -181, -220, -208, -196, -213, -218, -203, -225, -305, -201, 332, 1004, 1205, 400, -632, -509, 0, -157, -307, -174, -128, -138, -128, -135, -116, -92, -111, -116, -58, -7, -29, -36])
('ECG', 1751793075772267932, [16, 9, -21, 36, 55, 7, 38, 50, 0, -33, -87, -128, -164, -254, -274, -254, -327, -371, -315, -293, -329, -322, -266, -257, -291, -305, -307, -307, -269, -220, -237, -288, -291, -257, -257, -266, -259, -276, -276, -201, -191, -269, -264, -227, -257, -242, -194, -225, -274, -261, -223, -167, -145, -208, -247, -218, -213, -198, -164, -206, -252, -247, -274, -283, -48, 555, 1222, 1110, -113, -892, -327, 29, -264])
('ECG', 1751793076333799132, [-261, -118, -181, -189, -118, -143, -179, -152, -128, -77, -12, -36, -82, -21, 48, 24, 2, 16, 24, 19, -26, -46, 4, -26, -147, -208, -235, -276, -295, -307, -344, -363, -337, -310, -312, -303, -298, -312, -310, -315, -305, -240, -252, -317, -278, -252, -300, -274, -225, -254, -261, -235, -269, -307, -283, -227, -208, -240, -242, -206, -210, -235, -210, -191, -223, -232, -210, -220, -218, -191, -203, -264, -320])
('ECG', 1751793076895309986, [-329, -109, 499, 1224, 1258, 55, -950, -482, 7, -223, -252, -109, -162, -174, -109, -113, -123, -84, -67, -75, -50, -19, -12, 0, 26, 16, 4, 38, 41, -2, -7, 14, -9, -70, -126, -191, -254, -295, -327, -339, -346, -373, -380, -346, -315, -315, -329, -329, -312, -295, -286, -269, -271, -278, -259, -244, -254, -254, -254, -254, -249, -249, -247, -227, -232, -259, -266, -259, -259, -247, -210, -208, -230])
('ECG', 1751793077456831014, [-215, -210, -240, -235, -215, -249, -266, -215, -198, -291, -278, 135, 843, 1295, 700, -567, -773, -118, -104, -315, -147, -89, -196, -179, -126, -113, -92, -84, -97, -72, -41, -24, -2, 2, -2, 19, 26, 16, 14, 19, 14, -9, -63, -106, -143, -213, -293, -324, -315, -310, -315, -332, -358, -349, -341, -358, -315, -244, -271, -341, -324, -274, -278, -298, -283, -288, -300, -269, -264, -291, -269, -247, -266])
('ECG', 1751793078018352040, [-257, -254, -291, -278, -247, -249, -237, -237, -237, -201, -194, -237, -249, -220, -225, -244, -249, -286, -300, -19, 645, 1248, 955, -310, -894, -261, -4, -281, -237, -138, -210, -196, -140, -147, -126, -104, -113, -92, -58, -63, -82, -67, -19, 26, 36, 19, 7, 16, 16, -21, -72, -126, -194, -242, -269, -305, -354, -388, -392, -390, -397, -397, -368, -346, -363, -380, -354, -324, -329, -327, -320, -324, -329])
('ECG', 1751793078579862896, [-324, -303, -283, -295, -315, -320, -312, -298, -286, -286, -288, -286, -271, -249, -232, -215, -208, -223, -244, -247, -242, -249, -261, -242, -201, -225, -320, -227, 278, 989, 1229, 349, -761, -596, -29, -162, -288, -133, -121, -184, -155, -121, -123, -121, -101, -82, -67, -53, -24, -2, -4, -2, 24, 38, 33, 48, 41, -12, -55, -82, -135, -191, -240, -281, -305, -324, -356, -380, -368, -341, -337, -339, -337])
('ECG', 1751793079141394096, [-329, -322, -315, -305, -295, -293, -305, -295, -261, -276, -300, -274, -266, -291, -291, -271, -261, -252, -252, -283, -288, -266, -264, -269, -261, -259, -249, -237, -223, -169, -135, -181, -223, -244, -264, -232, -208, -235, -242, -252, -312, -194, 356, 1071, 1268, 368, -710, -531, 12, -162, -303, -155, -184, -254, -157, -101, -143, -133, -84, -89, -99, -60, -21, -9, 2, 21, 38, 53, 65, 72, 67, 50, 29])
('ECG', 1751793079702925296, [-7, -67, -135, -191, -225, -257, -291, -315, -322, -315, -303, -300, -295, -288, -283, -276, -269, -274, -276, -261, -252, -261, -271, -269, -252, -232, -249, -281, -276, -259, -259, -276, -286, -271, -244, -254, -276, -271, -252, -247, -257, -271, -266, -252, -252, -247, -227, -235, -254, -261, -274, -264, -237, -235, -257, -324, -361, -111, 497, 1113, 1001, -145, -902, -361, 2, -293, -291, -128, -194, -232, -167, -155, -160])
('ECG', 1751793080264436150, [-150, -145, -109, -63, -55, -55, -36, -9, 2, -2, 16, 38, 12, -7, 7, -24, -111, -155, -169, -240, -317, -339, -351, -361, -366, -383, -388, -373, -361, -356, -361, -349, -324, -341, -346, -312, -315, -329, -295, -281, -322, -317, -278, -298, -334, -310, -281, -293, -281, -264, -293, -298, -257, -249, -266, -261, -257, -276, -274, -264, -274, -283, -259, -223, -220, -223, -203, -218, -252, -254, -242, -244, -244])
('ECG', 1751793080825957178, [-244, -274, -334, -281, 133, 822, 1251, 640, -613, -788, -145, -138, -341, -201, -157, -240, -189, -138, -172, -162, -121, -128, -130, -94, -58, -36, -14, -4, 0, 7, 19, 36, 14, -26, -24, -21, -101, -198, -244, -278, -327, -373, -395, -385, -383, -414, -426, -392, -375, -380, -368, -373, -378, -351, -337, -358, -344, -300, -300, -322, -320, -322, -322, -300, -305, -322, -305, -293, -310, -310, -293, -298, -305])
('ECG', 1751793081387457860, [-307, -310, -286, -274, -305, -312, -286, -293, -278, -237, -242, -261, -249, -240, -259, -295, -312, -269, -227, -259, -291, -310, -371, -254, 283, 994, 1214, 320, -817, -659, -77, -213, -341, -203, -213, -259, -213, -206, -213, -160, -123, -143, -126, -67, -63, -80, -43, -7, -9, -4, 7, -2, -7, 14, 16, -55, -140, -196, -257, -315, -351, -375, -400, -417, -429, -421, -378, -363, -390, -385, -361, -363, -366])
('ECG', 1751793081948983972, [-341, -339, -358, -332, -298, -305, -320, -312, -310, -320, -317, -307, -312, -315, -295, -281, -278, -283, -286, -281, -281, -281, -276, -283, -288, -266, -252, -259, -271, -278, -266, -242, -244, -257, -259, -252, -249, -264, -261, -244, -240, -227, -218, -230, -235, -235, -249, -257, -242, -232, -235, -237, -266, -332, -220, 281, 982, 1307, 528, -679, -630, -16, -167, -361, -181, -147, -227, -186, -157, -155, -99, -89, -138])
('ECG', 1751793082510489742, [-123, -65, -50, -60, -31, 14, 31, 33, 29, 21, 46, 67, 36, -19, -80, -140, -203, -257, -293, -329, -361, -385, -402, -385, -349, -351, -368, -363, -354, -361, -354, -310, -295, -322, -329, -305, -293, -307, -312, -293, -288, -315, -324, -300, -295, -281, -261, -286, -300, -283, -288, -317, -312, -274, -261, -293, -303, -269, -259, -278, -293, -291, -261, -247, -286, -295, -252, -249, -274, -261, -261, -269, -232])
('ECG', 1751793083072020942, [-225, -271, -249, -198, -235, -266, -247, -242, -223, -208, -261, -303, -310, -310, -55, 594, 1224, 1030, -174, -885, -346, -36, -305, -278, -140, -203, -223, -172, -181, -181, -147, -130, -104, -75, -77, -77, -55, -16, -2, 2, 21, 33, 29, 29, 21, -12, -60, -116, -177, -249, -317, -354, -368, -385, -402, -397, -392, -390, -388, -402, -412, -378, -356, -383, -371, -334, -346, -344, -322, -341, -349, -317, -320])
('ECG', 1751793083633531796, [-334, -322, -332, -346, -317, -315, -332, -320, -332, -337, -269, -252, -305, -307, -300, -315, -278, -254, -274, -276, -293, -305, -259, -242, -271, -261, -257, -288, -269, -244, -271, -252, -208, -235, -271, -249, -230, -252, -223, -155, -186, -240, -235, -252, -278, -278, -266, -244, -293, -361, -184, 354, 1030, 1285, 414, -729, -565, -2, -189, -324, -164, -184, -244, -189, -169, -181, -155, -140, -126, -89, -77, -82, -48])
('ECG', 1751793084195052824, [-12, -19, -2, 53, 46, 24, 58, 58, 7, -31, -80, -147, -210, -281, -339, -334, -324, -371, -402, -385, -378, -395, -402, -390, -373, -358, -349, -341, -337, -334, -337, -337, -320, -303, -305, -312, -327, -327, -300, -303, -303, -276, -288, -315, -300, -281, -274, -276, -288, -278, -266, -276, -286, -283, -259, -237, -257, -271, -247, -247, -283, -274, -223, -227, -252, -235, -237, -252, -247, -249, -266, -252, -220])
('ECG', 1751793084756584024, [-227, -230, -210, -223, -235, -227, -240, -257, -252, -227, -215, -259, -334, -213, 315, 1028, 1302, 453, -700, -565, -4, -203, -363, -191, -189, -252, -196, -167, -186, -172, -143, -128, -111, -94, -82, -77, -67, -24, 14, 14, 9, 38, 53, 31, -9, -43, -72, -133, -215, -293, -354, -363, -356, -388, -404, -402, -417, -414, -395, -390, -380, -363, -356, -356, -346, -346, -346, -332, -341, -354, -317, -278, -283])
('ECG', 1751793085318084706, [-305, -315, -315, -310, -300, -286, -278, -293, -310, -298, -286, -281, -276, -281, -274, -254, -254, -278, -288, -276, -254, -252, -266, -261, -259, -271, -266, -257, -261, -254, -235, -244, -259, -257, -242, -223, -232, -237, -230, -249, -240, -194, -206, -257, -249, -225, -259, -288, -257, -252, -329, -371, -150, 431, 1125, 1239, 177, -851, -475, 12, -259, -332, -152, -213, -266, -172, -152, -198, -191, -160, -143, -118, -87])
('ECG', 1751793085879615906, [-82, -80, -58, -26, 2, 7, 29, 63, 43, 16, 4, -29, -67, -138, -237, -295, -341, -385, -390, -385, -412, -424, -407, -392, -385, -380, -378, -378, -368, -351, -337, -334, -337, -329, -324, -320, -307, -300, -307, -317, -310, -291, -283, -298, -310, -307, -303, -291, -264, -261, -283, -281, -274, -278, -271, -261, -269, -276, -271, -266, -269, -276, -274, -266, -274, -266, -247, -254, -264, -249, -259, -291, -286])
('ECG', 1751793086441121674, [-242, -225, -242, -235, -213, -213, -218, -220, -237, -237, -223, -235, -252, -244, -261, -337, -315, 87, 797, 1309, 865, -385, -778, -164, -84, -371, -266, -160, -235, -230, -164, -162, -174, -155, -145, -147, -140, -121, -80, -33, -19, -14, 4, 14, 12, 16, 16, 4, -21, -82, -143, -191, -264, -339, -371, -383, -402, -407, -414, -419, -412, -400, -397, -390, -380, -368, -354, -356, -368, -368, -346, -332, -344])
('ECG', 1751793087002647788, [-337, -307, -310, -329, -332, -329, -322, -315, -320, -320, -310, -312, -307, -293, -286, -291, -288, -276, -276, -283, -281, -271, -266, -257, -254, -254, -261, -264, -249, -240, -242, -240, -225, -210, -215, -218, -208, -208, -198, -189, -203, -196, -179, -198, -218, -220, -230, -237, -235, -232, -254, -324, -281, 140, 843, 1285, 681, -557, -725, -99, -116, -334, -196, -147, -227, -201, -160, -164, -155, -138, -128, -109, -92])
('ECG', 1751793087564148470, [-77, -58, -38, -26, -12, 12, 21, 16, 19, 24, 9, -26, -72, -130, -194, -252, -298, -337, -361, -368, -366, -368, -375, -373, -358, -344, -337, -324, -320, -317, -310, -303, -293, -288, -288, -283, -281, -281, -281, -286, -286, -281, -281, -281, -276, -271, -271, -269, -264, -257, -264, -271, -264, -259, -264, -261, -249, -247, -252, -252, -249, -249, -252, -252, -247, -244, -247, -242, -240, -242, -244, -240, -237])
('ECG', 1751793088125679670, [-235, -235, -235, -227, -223, -227, -230, -213, -196, -210, -223, -223, -227, -235, -227, -225, -259, -327, -271, 150, 839, 1285, 771, -402, -652, -84, -82, -324, -218, -160, -230, -203, -162, -177, -169, -143, -130, -113, -92, -77, -65, -46, -26, -14, 0, 9, 9, 7, 2, -7, -29, -67, -126, -186, -237, -288, -334, -358, -371, -383, -380, -371, -368, -368, -356, -344, -341, -337, -327, -322, -322, -320, -315])
('ECG', 1751793088687180352, [-307, -307, -310, -305, -295, -295, -295, -283, -264, -257, -261, -259, -252, -264, -276, -274, -261, -261, -259, -244, -232, -227, -225, -225, -242, -261, -261, -257, -257, -244, -227, -220, -235, -261, -271, -264, -261, -274, -281, -266, -240, -225, -227, -227, -220, -225, -227, -218, -220, -240, -257, -261, -254, -244, -252, -283, -346, -317, 65, 732, 1205, 805, -334, -715, -162, -80, -341, -252, -162, -225, -198, -133, -140])
('ECG', 1751793089248711552, [-150, -126, -109, -101, -106, -109, -92, -75, -72, -55, -24, -4, 2, -2, -31, -80, -126, -172, -237, -310, -378, -453, -523, -560, -584, -603, -608, -603, -589, -567, -560, -562, -562, -557, -552, -548, -538, -531, -523, -509, -489, -480, -475, -470, -470, -458, -441, -438, -443, -431, -417, -419, -421, -409, -402, -397, -397, -400, -402, -404, -414, -434, -446, -441, -412, -378, -358, -332, -312, -339, -383, -402, -404])
('ECG', 1751793089810217320, [-400, -388, -366, -366, -390, -383, -344, -349, -392, -400, -371, -363, -358, -354, -395, -421, -385, -368, -404, -463, -446, -113, 521, 1016, 722, -421, -970, -385, -109, -341, -310, -230, -300, -276, -203, -227, -249, -189, -143, -140, -118, -101, -101, -101, -84, -50, -12, -2, -24, -29, -16, -38, -60, -70, -130, -223, -269, -298, -358, -392, -383, -395, -417, -409, -402, -404, -371, -349, -378, -388, -356, -317, -307])
('ECG', 1751793090371743434, [-329, -339, -346, -358, -332, -320, -339, -329, -310, -312, -315, -312, -307, -291, -295, -317, -288, -266, -307, -320, -293, -286, -276, -276, -286, -286, -281, -281, -293, -307, -291, -269, -278, -295, -276, -261, -300, -332, -300, -264, -259, -252, -242, -235, -230, -252, -278, -278, -274, -288, -286, -257, -254, -320, -320, 31, 681, 1108, 625, -506, -802, -230, -116, -295, -201, -167, -240, -179, -113, -150, -143, -82, -82])
('ECG', 1751793090933244116, [-82, -16, 26, 29, 43, 80, 118, 162, 196, 203, 198, 189, 172, 145, 101, 43, -24, -94, -140, -164, -181, -194, -223, -237, -225, -225, -227, -213, -208, -203, -189, -201, -223, -203, -169, -181, -210, -198, -186, -206, -213, -201, -203, -206, -206, -223, -220, -181, -181, -210, -206, -206, -213, -186, -174, -210, -213, -181, -186, -213, -210, -189, -186, -206, -203, -184, -189, -196, -184, -191, -208, -201, -189])
('ECG', 1751793091494775316, [-184, -186, -196, -191, -172, -157, -155, -174, -194, -189, -189, -215, -215, -169, -172, -254, -254, 63, 686, 1193, 858, -269, -700, -140, 0, -271, -210, -123, -194, -191, -133, -123, -138, -133, -111, -92, -84, -75, -38, 2, -9, -4, 46, 53, 16, 12, 21, 24, 14, -41, -121, -172, -208, -264, -303, -327, -368, -392, -366, -346, -363, -373, -361, -358, -349, -310, -291, -295, -298, -317, -317, -288, -293])
('ECG', 1751793092056275998, [-307, -276, -261, -286, -303, -295, -269, -264, -293, -274, -240, -276, -283, -232, -237, -274, -261, -249, -266, -254, -220, -223, -254, -257, -232, -244, -266, -232, -201, -218, -232, -227, -227, -218, -206, -220, -225, -184, -164, -181, -189, -198, -237, -257, -227, -196, -206, -259, -307, -135, 424, 1084, 1115, 70, -834, -448, -4, -230, -281, -143, -201, -208, -99, -109, -150, -121, -111, -94, -46, -43, -58, -43, -38])
('ECG', 1751793092617776680, [-26, 41, 89, 67, 38, 31, 16, -16, -60, -89, -111, -177, -252, -286, -329, -368, -349, -341, -380, -395, -368, -341, -351, -358, -324, -298, -312, -320, -303, -303, -303, -295, -293, -278, -274, -293, -288, -266, -281, -291, -269, -266, -276, -257, -252, -274, -266, -252, -259, -259, -254, -264, -269, -242, -218, -225, -237, -244, -240, -230, -235, -242, -227, -223, -223, -208, -213, -215, -179, -174, -223, -240, -237])
('ECG', 1751793093179307880, [-242, -235, -240, -261, -295, -271, 70, 727, 1200, 727, -480, -807, -181, -55, -281, -196, -118, -169, -135, -109, -147, -140, -106, -104, -99, -72, -53, -46, -24, -2, 12, 26, 38, 38, 33, 29, 16, -9, -50, -109, -174, -225, -269, -300, -317, -337, -351, -349, -337, -329, -332, -324, -303, -293, -286, -281, -283, -278, -266, -266, -261, -259, -264, -259, -240, -240, -261, -254, -235, -237, -232, -225, -227])
('ECG', 1751793093740808562, [-225, -220, -223, -215, -210, -225, -223, -198, -198, -215, -215, -203, -186, -184, -189, -189, -194, -196, -186, -189, -191, -177, -179, -196, -181, -150, -152, -177, -181, -184, -194, -194, -184, -191, -237, -298, -155, 385, 1074, 1263, 392, -637, -446, 29, -201, -317, -138, -162, -227, -160, -135, -155, -128, -104, -101, -82, -63, -55, -46, -29, -9, 7, 21, 36, 41, 31, 24, 7, -24, -80, -157, -218, -254])
('ECG', 1751793094302339762, [-288, -322, -344, -356, -366, -366, -361, -358, -349, -337, -327, -320, -312, -312, -307, -298, -295, -298, -293, -286, -283, -278, -274, -274, -271, -274, -271, -261, -257, -259, -257, -254, -252, -252, -254, -254, -249, -240, -235, -242, -247, -240, -237, -237, -235, -232, -227, -220, -223, -227, -215, -208, -220, -227, -210, -194, -203, -220, -230, -235, -232, -230, -237, -271, -329, -271, 147, 822, 1212, 642, -494, -654, -87])
('ECG', 1751793094863840444, [-111, -332, -218, -169, -232, -201, -172, -186, -167, -135, -123, -116, -101, -84, -72, -58, -33, -4, 4, 2, 4, -4, -14, -26, -63, -111, -160, -215, -264, -307, -344, -368, -383, -395, -400, -395, -385, -383, -383, -371, -363, -361, -356, -346, -339, -339, -337, -332, -337, -339, -327, -310, -305, -320, -320, -307, -312, -322, -312, -291, -286, -300, -305, -295, -286, -281, -286, -293, -283, -264, -264, -271, -276])
('ECG', 1751793095425341126, [-269, -264, -271, -271, -257, -235, -235, -244, -232, -220, -230, -244, -252, -259, -264, -264, -259, -278, -329, -286, 106, 778, 1166, 540, -632, -749, -128, -121, -317, -191, -143, -213, -184, -145, -155, -143, -113, -106, -101, -72, -50, -50, -41, -9, 7, 4, 14, 29, 16, -14, -29, -43, -89, -145, -198, -254, -295, -322, -349, -368, -373, -375, -363, -349, -351, -358, -349, -337, -329, -324, -329, -324, -305])
('ECG', 1751793095986872324, [-298, -307, -307, -300, -300, -300, -295, -291, -295, -298, -283, -269, -274, -278, -276, -274, -271, -266, -264, -259, -254, -247, -244, -244, -247, -242, -237, -235, -237, -237, -223, -210, -208, -198, -191, -203, -225, -235, -227, -215, -225, -242, -266, -320, -218, 281, 960, 1176, 337, -725, -574, -26, -160, -286, -138, -138, -194, -143, -113, -128, -113, -97, -94, -77, -53, -38, -21, -4, 4, 14, 29, 31, 29])
('ECG', 1751793096548373008, [24, 14, -9, -46, -84, -147, -213, -261, -291, -307, -324, -339, -339, -339, -341, -332, -324, -324, -317, -307, -303, -295, -295, -293, -283, -281, -286, -281, -274, -271, -276, -278, -274, -266, -261, -261, -264, -254, -244, -237, -232, -230, -237, -240, -235, -225, -225, -225, -220, -220, -218, -215, -215, -220, -223, -215, -198, -191, -186, -181, -198, -215, -210, -203, -201, -198, -215, -269, -298, -38, 594, 1183, 1006])
('ECG', 1751793097109883862, [-87, -722, -232, 14, -261, -237, -118, -194, -201, -130, -140, -155, -116, -89, -87, -72, -55, -48, -36, -16, -2, 21, 33, 29, 24, 26, 12, -21, -60, -116, -179, -230, -264, -293, -322, -341, -346, -349, -351, -344, -334, -324, -324, -324, -312, -307, -312, -295, -288, -298, -293, -288, -293, -298, -288, -276, -278, -286, -276, -261, -266, -283, -286, -271, -264, -269, -274, -264, -254, -252, -249, -249, -247])
('ECG', 1751793097671404890, [-247, -252, -247, -242, -249, -252, -235, -220, -210, -203, -201, -201, -208, -223, -235, -225, -215, -220, -218, -247, -322, -189, 341, 989, 1130, 247, -729, -485, 16, -179, -288, -128, -145, -208, -152, -130, -152, -130, -104, -104, -84, -63, -55, -41, -16, -12, -2, 16, 19, 14, 0, -24, -43, -65, -104, -152, -206, -261, -305, -329, -349, -358, -363, -363, -346, -339, -358, -349, -312, -307, -320, -315, -310])
('ECG', 1751793098232905572, [-305, -295, -295, -298, -295, -293, -293, -283, -281, -291, -283, -276, -278, -276, -271, -269, -266, -264, -257, -249, -259, -259, -237, -232, -252, -252, -240, -247, -249, -240, -230, -223, -210, -198, -189, -203, -235, -242, -230, -227, -227, -223, -223, -271, -310, -65, 552, 1122, 899, -225, -836, -312, -24, -252, -220, -106, -164, -174, -123, -128, -128, -97, -82, -77, -60, -48, -33, -16, -7, -2, 12, 16, 14])
('ECG', 1751793098794431684, [14, 4, -21, -50, -77, -121, -181, -227, -254, -286, -317, -332, -329, -334, -337, -320, -310, -310, -305, -300, -293, -286, -283, -281, -278, -278, -278, -274, -276, -278, -276, -274, -274, -269, -264, -261, -259, -257, -254, -247, -232, -225, -223, -218, -215, -213, -208, -196, -186, -184, -184, -186, -189, -189, -186, -191, -198, -198, -184, -167, -157, -152, -157, -172, -186, -196, -194, -186, -194, -203, -227, -293, -247])
('ECG', 1751793099355937454, [189, 885, 1244, 625, -475, -574, -16, -75, -286, -160, -123, -196, -160, -113, -130, -126, -99, -87, -75, -60, -48, -38, -21, -9, -4, 7, 14, 19, 24, 9, -9, -36, -72, -121, -179, -230, -261, -295, -329, -341, -337, -327, -315, -300, -288, -274, -261, -261, -252, -227, -225, -237, -237, -232, -235, -227, -225, -240, -252, -271, -298, -312, -310, -310, -307, -312, -312, -303, -300, -303, -300, -291, -286])
('ECG', 1751793099917443222, [-286, -283, -278, -276, -271, -266, -261, -259, -266, -264, -261, -266, -264, -237, -218, -215, -213, -213, -223, -235, -237, -235, -230, -225, -244, -305, -298, 33, 681, 1198, 899, -201, -664, -113, 50, -223, -160, -50, -138, -152, -84, -70, -65, -46, -33, -19, -4, -7, -31, -50, -48, -36, -33, -38, -41, -43, -58, -77, -82, -101, -164, -227, -271, -307, -341, -366, -378, -380, -388, -395, -383, -358, -354])
('ECG', 1751793100478969336, [-354, -346, -349, -346, -334, -332, -334, -322, -312, -315, -312, -300, -300, -307, -303, -300, -298, -295, -295, -288, -283, -278, -276, -281, -281, -271, -266, -259, -249, -254, -264, -264, -264, -261, -249, -235, -227, -213, -206, -223, -242, -247, -235, -227, -230, -237, -264, -322, -240, 218, 882, 1122, 317, -737, -606, -58, -164, -278, -143, -147, -201, -155, -123, -126, -123, -106, -84, -77, -70, -46, -26, -21, -12])
('ECG', 1751793101040470018, [2, 12, 9, 7, -4, -31, -60, -82, -123, -184, -230, -257, -293, -324, -334, -344, -354, -361, -366, -356, -337, -327, -332, -329, -312, -307, -312, -303, -293, -298, -300, -303, -303, -293, -291, -298, -293, -288, -283, -276, -271, -274, -278, -278, -274, -266, -266, -271, -261, -240, -230, -240, -249, -244, -242, -249, -249, -249, -244, -237, -232, -218, -198, -208, -225, -227, -232, -230, -218, -220, -227, -261, -322])
('ECG', 1751793101601991044, [-198, 312, 955, 1079, 184, -778, -518, -12, -189, -283, -128, -143, -198, -143, -121, -140, -123, -101, -94, -80, -60, -46, -36, -26, -12, -2, 4, 7, -2, -19, -29, -43, -77, -121, -167, -220, -264, -291, -303, -317, -334, -337, -332, -329, -327, -322, -312, -303, -295, -293, -295, -298, -295, -288, -288, -291, -278, -269, -274, -276, -269, -266, -271, -269, -264, -266, -261, -254, -252, -247, -247, -247, -235])
('ECG', 1751793102163501900, [-225, -220, -220, -220, -218, -206, -203, -206, -208, -210, -215, -213, -198, -191, -196, -191, -179, -174, -174, -189, -206, -203, -196, -203, -215, -244, -293, -128, 446, 1096, 1127, 169, -696, -371, 33, -198, -259, -111, -150, -194, -145, -140, -147, -116, -101, -106, -84, -60, -48, -41, -29, -12, 2, 7, 9, 9, -7, -26, -48, -80, -126, -174, -223, -266, -293, -312, -329, -337, -337, -337, -344, -337, -315])
('ECG', 1751793102725002582, [-315, -317, -305, -300, -300, -293, -283, -278, -276, -271, -269, -271, -269, -264, -264, -266, -264, -259, -257, -259, -269, -274, -261, -249, -254, -266, -266, -254, -244, -240, -240, -237, -235, -237, -232, -230, -237, -237, -225, -230, -242, -232, -213, -206, -203, -189, -186, -208, -223, -213, -208, -208, -210, -235, -295, -249, 164, 839, 1200, 599, -494, -606, -55, -94, -298, -179, -152, -225, -186, -150, -164, -140, -111])
('ECG', 1751793103286533782, [-111, -101, -82, -67, -53, -41, -29, -14, 0, 7, 2, -4, -16, -46, -77, -97, -140, -198, -242, -276, -310, -329, -334, -341, -344, -344, -346, -341, -332, -324, -312, -305, -303, -298, -291, -295, -303, -305, -298, -293, -288, -283, -278, -288, -293, -283, -281, -283, -278, -281, -283, -274, -269, -269, -261, -252, -252, -247, -247, -249, -249, -254, -252, -240, -227, -237, -252, -249, -235, -223, -208, -201, -203])
('ECG', 1751793103848034464, [-201, -206, -223, -232, -225, -220, -215, -213, -254, -307, -140, 402, 1011, 1018, 50, -771, -402, 7, -210, -264, -118, -147, -186, -140, -128, -138, -116, -87, -72, -67, -58, -46, -36, -19, 0, 2, -4, 2, -4, -21, -36, -65, -92, -126, -179, -227, -259, -293, -322, -334, -346, -354, -339, -324, -324, -315, -298, -300, -310, -298, -281, -283, -291, -283, -281, -291, -286, -286, -291, -281, -278, -278, -271])
