('ECG', 1751734499778608000, [-2404, -2453, -2520, -2305, -1645, -908, -821, -1880, -2910, -2603, -2139, -2356, -2412, -2238, -2259, -2298, -2235, -2206, -2197, -2153, -2126, -2112, -2076, -2030, -2010, -2006, -1991, -1960, -1933, -1928, -1916, -1902, -1909, -1923, -1936, -1952, -1979, -2027, -2090, -2122, -2129, -2160, -2184, -2182, -2197, -2206, -2175, -2165, -2194, -2187, -2155, -2146, -2141, -2131, -2126, -2126, -2136, -2141, -2129, -2126, -2134, -2131, -2129, -2134, -2129, -2119, -2107, -2100, -2102, -2107, -2095, -2085, -2095])
('ECG', 1751734500340139200, [-2102, -2105, -2114, -2126, -2122, -2119, -2129, -2134, -2119, -2102, -2110, -2134, -2126, -2093, -2076, -2078, -2073, -2066, -2061, -2059, -2047, -2035, -2052, -2078, -2066, -2044, -2049, -2037, -2001, -2015, -2068, -2061, -2015, -2010, -2023, -2013, -2042, -2112, -1936, -1324, -609, -488, -1481, -2494, -2204, -1745, -1991, -2081, -1916, -1945, -1994, -1928, -1909, -1919, -1890, -1861, -1841, -1810, -1788, -1774, -1757, -1745, -1735, -1718, -1703, -1691, -1689, -1694, -1696, -1701, -1720, -1749, -1776])
('ECG', 1751734500901639882, [-1807, -1839, -1853, -1868, -1882, -1887, -1892, -1909, -1914, -1904, -1880, -1861, -1863, -1868, -1858, -1853, -1856, -1853, -1861, -1873, -1873, -1858, -1863, -1873, -1846, -1824, -1836, -1851, -1851, -1844, -1836, -1841, -1846, -1851, -1848, -1841, -1839, -1836, -1822, -1819, -1832, -1829, -1832, -1848, -1846, -1829, -1824, -1819, -1817, -1815, -1805, -1805, -1803, -1795, -1810, -1827, -1810, -1793, -1807, -1815, -1795, -1807, -1851, -1861, -1839, -1839, -1853, -1848, -1870, -1943, -1846, -1336, -601])
('ECG', 1751734501463140564, [-234, -998, -2262, -2279, -1621, -1682, -1868, -1703, -1682, -1769, -1723, -1689, -1725, -1706, -1665, -1672, -1682, -1662, -1636, -1612, -1583, -1561, -1544, -1525, -1522, -1544, -1554, -1544, -1563, -1597, -1612, -1624, -1667, -1711, -1737, -1754, -1783, -1800, -1793, -1798, -1817, -1822, -1807, -1800, -1807, -1810, -1807, -1805, -1786, -1759, -1757, -1761, -1757, -1761, -1769, -1766, -1766, -1754, -1754, -1781, -1793, -1778, -1778, -1795, -1795, -1788, -1783, -1769, -1769, -1783, -1786, -1781, -1781])
('ECG', 1751734502024671764, [-1761, -1737, -1747, -1757, -1740, -1730, -1742, -1774, -1778, -1732, -1696, -1684, -1677, -1653, -1631, -1633, -1650, -1633, -1590, -1568, -1568, -1578, -1638, -1677, -1394, -708, -50, -236, -1508, -2281, -1725, -1392, -1648, -1609, -1484, -1561, -1573, -1508, -1515, -1527, -1496, -1484, -1486, -1450, -1426, -1428, -1413, -1384, -1375, -1370, -1358, -1351, -1348, -1358, -1384, -1411, -1438, -1467, -1496, -1537, -1595, -1643, -1660, -1667, -1691, -1713, -1706, -1689, -1677, -1674, -1662, -1631, -1609])
('ECG', 1751734502586172446, [-1624, -1633, -1604, -1602, -1621, -1595, -1573, -1602, -1607, -1585, -1590, -1600, -1580, -1546, -1537, -1551, -1554, -1534, -1534, -1551, -1546, -1532, -1544, -1561, -1558, -1546, -1551, -1558, -1556, -1542, -1525, -1520, -1517, -1510, -1498, -1491, -1476, -1455, -1447, -1452, -1452, -1457, -1479, -1496, -1496, -1496, -1513, -1566, -1607, -1375, -737, -72, -142, -1300, -2148, -1677, -1288, -1544, -1554, -1413, -1474, -1498, -1438, -1433, -1433, -1399, -1397, -1401, -1372, -1355, -1355, -1324, -1302])
('ECG', 1751734503147703646, [-1314, -1302, -1273, -1271, -1276, -1276, -1285, -1302, -1331, -1382, -1423, -1433, -1452, -1488, -1503, -1503, -1513, -1513, -1488, -1484, -1493, -1488, -1484, -1481, -1471, -1469, -1476, -1488, -1493, -1491, -1491, -1496, -1491, -1484, -1486, -1491, -1491, -1488, -1496, -1500, -1481, -1462, -1457, -1450, -1442, -1450, -1455, -1455, -1455, -1438, -1423, -1426, -1426, -1413, -1401, -1401, -1406, -1409, -1421, -1445, -1457, -1433, -1397, -1384, -1384, -1399, -1418, -1418, -1411, -1421, -1421, -1389, -1377])
('ECG', 1751734503709204328, [-1399, -1418, -1433, -1442, -1440, -1445, -1469, -1532, -1554, -1237, -536, 82, -198, -1464, -2085, -1476, -1225, -1532, -1484, -1331, -1397, -1413, -1346, -1339, -1341, -1322, -1317, -1297, -1259, -1252, -1254, -1230, -1203, -1186, -1167, -1157, -1157, -1155, -1157, -1172, -1189, -1210, -1254, -1293, -1317, -1343, -1375, -1399, -1418, -1433, -1428, -1416, -1426, -1435, -1411, -1404, -1418, -1411, -1399, -1399, -1401, -1394, -1394, -1404, -1416, -1406, -1387, -1384, -1397, -1392, -1382, -1384, -1389])
('ECG', 1751734504270705010, [-1397, -1406, -1406, -1404, -1399, -1397, -1406, -1409, -1394, -1389, -1397, -1399, -1392, -1382, -1382, -1377, -1358, -1343, -1343, -1334, -1317, -1314, -1317, -1312, -1307, -1288, -1273, -1278, -1290, -1293, -1283, -1266, -1254, -1259, -1256, -1239, -1256, -1290, -1297, -1295, -1305, -1305, -1302, -1348, -1423, -1293, -739, -7, 174, -816, -1909, -1648, -1119, -1322, -1409, -1232, -1259, -1312, -1242, -1218, -1242, -1225, -1196, -1186, -1177, -1164, -1157, -1138, -1109, -1099, -1099, -1097, -1090])
('ECG', 1751734504832226036, [-1082, -1080, -1090, -1111, -1133, -1155, -1184, -1235, -1293, -1319, -1319, -1351, -1394, -1404, -1399, -1404, -1401, -1404, -1411, -1399, -1387, -1384, -1372, -1370, -1387, -1394, -1377, -1360, -1355, -1358, -1358, -1348, -1339, -1339, -1346, -1355, -1363, -1370, -1372, -1375, -1372, -1372, -1372, -1351, -1343, -1368, -1375, -1360, -1343, -1322, -1319, -1324, -1310, -1300, -1307, -1312, -1307, -1297, -1295, -1300, -1293, -1278, -1268, -1266, -1276, -1278, -1264, -1249, -1239, -1230, -1218, -1198, -1191])
('ECG', 1751734505393736892, [-1206, -1220, -1227, -1230, -1230, -1247, -1259, -1295, -1336, -1102, -456, 215, 130, -1024, -1812, -1314, -978, -1256, -1244, -1092, -1162, -1198, -1140, -1140, -1148, -1121, -1104, -1097, -1094, -1087, -1073, -1056, -1041, -1019, -1003, -998, -1003, -1012, -1017, -1027, -1056, -1087, -1106, -1143, -1193, -1232, -1264, -1290, -1319, -1348, -1363, -1358, -1346, -1331, -1329, -1341, -1351, -1360, -1360, -1339, -1322, -1319, -1305, -1295, -1302, -1305, -1293, -1295, -1307, -1300, -1288, -1285, -1278])
('ECG', 1751734505955237574, [-1271, -1259, -1247, -1247, -1249, -1242, -1237, -1235, -1222, -1218, -1230, -1225, -1210, -1213, -1220, -1210, -1196, -1191, -1189, -1191, -1201, -1215, -1218, -1225, -1237, -1235, -1239, -1252, -1252, -1244, -1247, -1244, -1242, -1254, -1256, -1239, -1227, -1222, -1213, -1203, -1181, -1157, -1148, -1150, -1164, -1193, -1198, -1174, -1167, -1172, -1172, -1184, -1247, -1273, -974, -294, 302, 14, -1203, -1778, -1227, -1024, -1283, -1225, -1126, -1203, -1206, -1160, -1181, -1191, -1157, -1131, -1121])
('ECG', 1751734506516768774, [-1104, -1087, -1077, -1075, -1070, -1056, -1034, -1029, -1032, -1017, -1027, -1061, -1082, -1097, -1126, -1162, -1191, -1222, -1244, -1264, -1285, -1293, -1290, -1283, -1266, -1252, -1256, -1268, -1249, -1222, -1222, -1220, -1196, -1181, -1181, -1181, -1184, -1189, -1179, -1162, -1160, -1169, -1184, -1203, -1210, -1203, -1203, -1225, -1239, -1235, -1235, -1232, -1215, -1201, -1198, -1201, -1193, -1186, -1174, -1162, -1164, -1164, -1157, -1152, -1148, -1143, -1135, -1128, -1126, -1128, -1128, -1126, -1116])
('ECG', 1751734507078269456, [-1114, -1126, -1131, -1123, -1119, -1114, -1114, -1119, -1135, -1140, -1116, -1106, -1114, -1119, -1123, -1131, -1131, -1119, -1094, -1090, -1097, -1085, -1082, -1099, -1106, -1106, -1109, -1099, -1092, -1106, -1174, -1174, -809, -91, 447, 16, -1225, -1633, -1044, -940, -1198, -1097, -1005, -1090, -1080, -1019, -1024, -1022, -998, -988, -971, -940, -930, -930, -923, -925, -932, -920, -906, -913, -928, -932, -937, -949, -959, -976, -1005, -1036, -1065, -1085, -1111, -1133, -1128])
('ECG', 1751734507639785396, [-1143, -1184, -1186, -1150, -1143, -1162, -1164, -1148, -1135, -1133, -1138, -1128, -1106, -1102, -1111, -1111, -1111, -1123, -1135, -1128, -1104, -1092, -1094, -1092, -1094, -1099, -1090, -1080, -1082, -1080, -1082, -1090, -1080, -1065, -1065, -1063, -1058, -1063, -1063, -1063, -1073, -1077, -1068, -1075, -1106, -1121, -1111, -1114, -1131, -1133, -1126, -1123, -1131, -1140, -1135, -1123, -1126, -1135, -1133, -1126, -1128, -1140, -1131, -1126, -1145, -1148, -1131, -1123, -1121, -1111, -1099, -1111, -1126])
('ECG', 1751734508201301338, [-1104, -1068, -1058, -1065, -1065, -1102, -1193, -1121, -630, 94, 442, -309, -1517, -1525, -916, -1003, -1177, -1019, -995, -1073, -1022, -978, -1007, -998, -949, -940, -945, -911, -877, -877, -874, -850, -838, -841, -838, -826, -826, -833, -848, -865, -896, -949, -998, -1024, -1041, -1068, -1094, -1123, -1150, -1150, -1135, -1140, -1145, -1140, -1140, -1135, -1116, -1104, -1104, -1114, -1121, -1104, -1092, -1092, -1094, -1102, -1106, -1094, -1087, -1092, -1092, -1085, -1080])
('ECG', 1751734508762802020, [-1090, -1090, -1075, -1073, -1077, -1075, -1068, -1077, -1085, -1070, -1051, -1051, -1051, -1041, -1036, -1039, -1039, -1036, -1036, -1032, -1027, -1024, -1015, -1007, -1012, -1007, -1003, -1012, -1015, -1007, -1007, -1010, -998, -981, -974, -974, -959, -952, -981, -1005, -1003, -990, -990, -1003, -1034, -1121, -1157, -833, -128, 449, 108, -1145, -1694, -1080, -853, -1119, -1051, -935, -1024, -1029, -952, -937, -928, -887, -865, -855, -841, -833, -831, -816, -795, -783, -775])
('ECG', 1751734509324333220, [-763, -754, -756, -766, -780, -812, -843, -872, -913, -966, -998, -1010, -1034, -1058, -1063, -1065, -1061, -1056, -1058, -1048, -1036, -1039, -1036, -1019, -1027, -1032, -1015, -1012, -1029, -1032, -1024, -1024, -1027, -1022, -1022, -1017, -1015, -1019, -1015, -1015, -1024, -1027, -1019, -1017, -1019, -1022, -1010, -1000, -1007, -1022, -1027, -1032, -1034, -1024, -1027, -1039, -1029, -1012, -1019, -1027, -1017, -1015, -1019, -1015, -1003, -998, -998, -998, -1003, -998, -983, -974, -981])
('ECG', 1751734509885838988, [-981, -971, -971, -988, -993, -990, -990, -995, -995, -1003, -1048, -1082, -865, -261, 396, 384, -698, -1580, -1167, -751, -1000, -1046, -903, -940, -959, -896, -894, -903, -865, -841, -845, -833, -804, -790, -771, -744, -732, -729, -722, -713, -705, -708, -713, -727, -749, -768, -804, -845, -872, -906, -949, -971, -976, -990, -1007, -1000, -993, -998, -995, -981, -986, -995, -986, -978, -986, -988, -981, -971, -969, -971, -976, -976, -983])
('ECG', 1751734510447344756, [-990, -988, -976, -966, -964, -966, -969, -969, -969, -957, -947, -940, -937, -942, -942, -932, -925, -923, -920, -920, -925, -920, -908, -913, -923, -918, -903, -903, -901, -894, -908, -920, -911, -903, -911, -918, -920, -920, -913, -891, -879, -887, -882, -874, -889, -908, -911, -911, -920, -928, -947, -998, -942, -522, 174, 592, -38, -1281, -1452, -826, -829, -1053, -923, -860, -928, -901, -870, -896, -877, -838, -833, -831, -816])
('ECG', 1751734511008865784, [-797, -778, -768, -758, -729, -717, -727, -727, -725, -737, -734, -737, -768, -800, -826, -865, -906, -945, -969, -978, -990, -998, -1005, -1017, -1015, -1000, -988, -981, -978, -978, -974, -964, -959, -959, -957, -952, -957, -959, -954, -957, -966, -961, -959, -969, -966, -952, -952, -954, -947, -940, -935, -937, -945, -945, -932, -930, -930, -920, -913, -918, -928, -932, -916, -903, -911, -913, -906, -906, -896, -884, -891, -887, -855])
('ECG', 1751734511570366466, [-836, -848, -853, -836, -833, -865, -894, -899, -889, -889, -891, -923, -993, -891, -367, 367, 626, -280, -1467, -1329, -729, -845, -961, -802, -804, -865, -824, -819, -843, -819, -792, -790, -780, -771, -756, -727, -698, -681, -664, -647, -650, -662, -669, -679, -693, -700, -720, -751, -763, -773, -831, -908, -932, -940, -964, -969, -952, -942, -940, -928, -920, -908, -889, -884, -894, -899, -894, -882, -877, -879, -879, -884, -887])
('ECG', 1751734512131892578, [-874, -865, -872, -882, -877, -870, -884, -903, -899, -882, -882, -879, -862, -855, -865, -872, -870, -865, -860, -850, -838, -838, -838, -841, -833, -826, -831, -838, -841, -850, -870, -872, -860, -860, -879, -879, -848, -831, -831, -824, -826, -845, -860, -867, -865, -867, -879, -901, -957, -923, -505, 215, 652, 50, -1179, -1375, -768, -778, -1000, -872, -821, -899, -862, -816, -833, -824, -792, -783, -768, -749, -739, -725, -710])
('ECG', 1751734512693398348, [-708, -703, -693, -679, -669, -674, -671, -676, -693, -722, -756, -790, -831, -879, -911, -932, -949, -959, -971, -966, -954, -954, -969, -981, -983, -981, -978, -974, -966, -954, -942, -942, -945, -942, -930, -908, -899, -896, -896, -901, -901, -899, -894, -887, -882, -879, -874, -865, -858, -850, -848, -853, -855, -855, -855, -858, -853, -848, -848, -850, -845, -848, -853, -853, -843, -831, -833, -841, -833, -826, -831, -833, -829])
('ECG', 1751734513254899030, [-814, -804, -802, -800, -807, -838, -850, -826, -812, -819, -826, -850, -920, -879, -447, 263, 679, 96, -1090, -1305, -749, -754, -964, -841, -792, -877, -850, -800, -812, -807, -778, -771, -768, -749, -729, -725, -713, -681, -650, -638, -628, -623, -623, -628, -638, -662, -688, -720, -749, -783, -824, -860, -882, -903, -918, -918, -930, -940, -923, -913, -913, -896, -884, -891, -889, -877, -870, -865, -865, -860, -855, -855, -860])
('ECG', 1751734513816399712, [-858, -860, -862, -855, -848, -848, -848, -836, -824, -829, -843, -843, -833, -836, -848, -843, -838, -836, -821, -812, -814, -816, -819, -821, -812, -804, -809, -800, -783, -780, -790, -795, -795, -800, -807, -804, -790, -780, -780, -778, -775, -775, -790, -809, -812, -802, -797, -804, -841, -908, -831, -364, 326, 638, -99, -1242, -1247, -676, -749, -906, -773, -766, -836, -790, -758, -768, -751, -739, -732, -703, -679, -664, -645])
('ECG', 1751734514377900394, [-630, -618, -594, -582, -582, -577, -587, -609, -623, -633, -655, -691, -727, -763, -802, -833, -865, -882, -870, -870, -894, -901, -889, -896, -903, -882, -870, -874, -877, -874, -877, -870, -848, -829, -826, -843, -858, -850, -843, -836, -819, -816, -843, -843, -812, -800, -826, -848, -853, -853, -841, -843, -860, -860, -853, -850, -848, -841, -833, -833, -833, -821, -821, -831, -821, -809, -819, -824, -800, -780, -797, -800, -780])
('ECG', 1751734514939421420, [-792, -821, -819, -804, -802, -804, -814, -872, -923, -688, -41, 609, 493, -667, -1488, -1017, -633, -853, -843, -720, -775, -783, -739, -761, -751, -708, -710, -700, -662, -650, -650, -626, -601, -587, -572, -565, -565, -577, -592, -596, -599, -621, -659, -700, -732, -766, -802, -845, -882, -903, -906, -894, -899, -937, -966, -966, -957, -952, -942, -935, -937, -945, -961, -988, -993, -971, -947, -920, -884, -867, -862, -848, -821])
('ECG', 1751734515500901758, [-804, -804, -800, -787, -787, -792, -797, -800, -792, -783, -778, -773, -771, -775, -778, -766, -761, -771, -768, -756, -761, -768, -754, -734, -717, -686, -671, -693, -710, -710, -710, -713, -708, -729, -800, -838, -560, 111, 710, 435, -790, -1406, -821, -541, -795, -761, -659, -729, -734, -691, -703, -708, -684, -674, -662, -647, -647, -635, -606, -587, -565, -531, -514, -517, -505, -488, -493, -505, -522, -565, -628, -686, -727])
('ECG', 1751734516062432958, [-754, -773, -785, -790, -790, -790, -802, -816, -814, -800, -790, -783, -773, -756, -746, -756, -766, -763, -778, -795, -787, -775, -768, -758, -749, -749, -758, -771, -780, -790, -790, -785, -780, -773, -771, -773, -771, -775, -778, -785, -790, -780, -775, -783, -790, -775, -754, -749, -756, -756, -756, -761, -766, -775, -792, -792, -783, -783, -778, -763, -800, -882, -925, -894, -862, -865, -858, -845, -896, -947, -725, -108, 538])
('ECG', 1751734516623933640, [526, -519, -1394, -1022, -633, -882, -925, -787, -838, -860, -785, -778, -785, -744, -717, -717, -703, -679, -667, -655, -628, -604, -594, -567, -473, -362, -335, -348, -345, -364, -398, -435, -476, -517, -553, -582, -616, -650, -674, -686, -681, -662, -657, -662, -647, -628, -630, -633, -623, -613, -613, -616, -609, -604, -613, -623, -613, -596, -592, -584, -565, -567, -584, -580, -560, -577, -613, -626, -618, -616, -616, -613, -618])
('ECG', 1751734517185434322, [-635, -638, -618, -611, -621, -623, -626, -635, -642, -645, -630, -580, -531, -558, -642, -696, -715, -725, -725, -732, -720, -708, -739, -751, -715, -705, -708, -679, -671, -722, -775, -621, -65, 633, 785, -123, -1085, -829, -362, -558, -650, -519, -558, -611, -567, -575, -599, -565, -551, -584, -572, -536, -541, -536, -488, -456, -468, -478, -471, -471, -468, -454, -456, -454, -435, -456, -507, -538, -577, -635, -696, -742, -792])
('ECG', 1751734517746950262, [-841, -894, -976, -1048, -1053, -1041, -1058, -1061, -1041, -1036, -1036, -1029, -1024, -1032, -1034, -1024, -1017, -1022, -1024, -1012, -995, -995, -993, -981, -971, -974, -976, -966, -952, -942, -940, -937, -932, -923, -916, -918, -916, -913, -911, -903, -903, -908, -906, -887, -860, -845, -848, -848, -845, -836, -816, -804, -804, -802, -775, -749, -756, -751, -737, -761, -795, -787, -773, -771, -768, -778, -833, -889, -720, -166, 519, 669, -292])
('ECG', 1751734518308456030, [-1346, -1092, -570, -739, -816, -669, -698, -746, -696, -681, -688, -679, -669, -652, -638, -630, -613, -594, -584, -575, -558, -548, -558, -570, -575, -584, -592, -611, -645, -676, -713, -758, -790, -807, -833, -860, -870, -862, -860, -865, -862, -853, -843, -838, -833, -841, -858, -858, -848, -850, -858, -848, -838, -850, -855, -843, -843, -845, -838, -826, -824, -831, -821, -804, -804, -809, -797, -785, -792, -795, -775, -766, -766])
('ECG', 1751734518869961798, [-761, -756, -756, -761, -763, -754, -742, -744, -749, -749, -749, -761, -761, -742, -717, -708, -710, -700, -693, -715, -739, -737, -722, -720, -717, -734, -809, -812, -430, 287, 768, 253, -988, -1314, -705, -613, -836, -725, -650, -722, -693, -635, -647, -655, -635, -621, -613, -601, -584, -567, -551, -546, -541, -512, -500, -519, -529, -531, -546, -560, -580, -611, -645, -679, -705, -737, -780, -816, -829, -816, -802, -790, -778])
('ECG', 1751734519431467568, [-771, -773, -771, -763, -751, -742, -746, -751, -751, -756, -758, -742, -727, -739, -746, -739, -734, -739, -742, -729, -725, -744, -756, -739, -722, -727, -739, -737, -729, -734, -734, -715, -705, -703, -693, -696, -708, -700, -681, -686, -698, -684, -664, -676, -698, -698, -686, -681, -686, -696, -705, -703, -696, -679, -662, -657, -657, -669, -693, -715, -717, -713, -717, -729, -768, -824, -657, -72, 611, 725, -210, -1179, -923])
('ECG', 1751734519992973336, [-466, -674, -775, -640, -659, -705, -662, -650, -662, -640, -616, -604, -594, -592, -594, -575, -534, -507, -502, -493, -483, -478, -483, -500, -514, -524, -538, -567, -599, -645, -696, -720, -725, -739, -749, -746, -744, -754, -749, -727, -722, -732, -732, -725, -720, -717, -713, -705, -700, -698, -693, -684, -684, -688, -679, -674, -684, -696, -698, -698, -703, -705, -705, -691, -684, -688, -686, -674, -667, -659, -652, -647, -645])
('ECG', 1751734520554479104, [-645, -645, -638, -633, -642, -657, -655, -652, -647, -635, -630, -640, -647, -650, -645, -623, -606, -596, -582, -582, -604, -626, -640, -647, -642, -635, -657, -717, -635, -164, 534, 845, 120, -995, -998, -442, -534, -703, -575, -563, -613, -553, -534, -572, -563, -534, -529, -519, -500, -483, -461, -442, -432, -427, -427, -425, -418, -425, -447, -459, -459, -483, -534, -570, -582, -604, -645, -676, -676, -667, -681, -708, -708])
('ECG', 1751734521115984872, [-732, -758, -715, -669, -688, -700, -674, -686, -708, -674, -635, -659, -710, -725, -696, -669, -662, -662, -671, -693, -720, -739, -737, -710, -686, -696, -710, -710, -700, -691, -676, -657, -657, -667, -667, -674, -684, -659, -626, -618, -613, -604, -650, -708, -696, -681, -696, -684, -657, -659, -664, -657, -671, -703, -734, -749, -739, -722, -713, -732, -800, -821, -551, 60, 621, 410, -727, -1389, -899, -606, -787, -720, -640])
('ECG', 1751734521677490640, [-727, -715, -669, -669, -642, -626, -635, -626, -611, -601, -577, -567, -575, -553, -524, -529, -534, -536, -548, -553, -553, -577, -621, -652, -681, -734, -775, -780, -795, -829, -829, -807, -814, -831, -821, -802, -792, -790, -780, -780, -802, -797, -768, -754, -773, -780, -768, -771, -783, -768, -749, -751, -751, -737, -746, -751, -722, -713, -742, -763, -758, -758, -773, -768, -756, -756, -749, -744, -768, -783, -775, -783, -795])
('ECG', 1751734522238996408, [-783, -744, -739, -756, -739, -715, -732, -778, -780, -742, -744, -771, -775, -824, -853, -526, 171, 676, 268, -920, -1377, -787, -589, -814, -715, -618, -722, -715, -640, -652, -652, -601, -594, -589, -563, -565, -572, -538, -497, -480, -480, -478, -473, -464, -478, -507, -524, -529, -567, -638, -674, -684, -713, -732, -742, -766, -773, -771, -775, -766, -734, -722, -727, -725, -713, -700, -700, -703, -696, -696, -713, -720, -698])
('ECG', 1751734522800502176, [-681, -686, -681, -671, -679, -681, -674, -674, -679, -671, -664, -664, -664, -657, -645, -635, -635, -635, -628, -621, -621, -626, -623, -628, -626, -601, -575, -565, -558, -541, -546, -565, -580, -580, -575, -580, -587, -601, -662, -657, -319, 306, 708, 241, -816, -1077, -558, -488, -688, -601, -548, -630, -633, -594, -594, -567, -526, -529, -543, -522, -495, -488, -476, -456, -449, -449, -430, -420, -420, -413, -435, -490, -522])
('ECG', 1751734523362002860, [-529, -570, -621, -659, -703, -734, -744, -756, -766, -746, -710, -705, -708, -693, -705, -720, -693, -671, -669, -657, -662, -686, -681, -667, -676, -679, -667, -664, -674, -671, -659, -650, -655, -662, -662, -664, -664, -657, -667, -671, -655, -650, -657, -647, -642, -652, -635, -611, -604, -606, -594, -577, -584, -609, -623, -628, -630, -626, -628, -642, -686, -715, -485, 130, 744, 604, -524, -1278, -821, -468, -686, -686, -570])
('ECG', 1751734523923503542, [-618, -630, -575, -565, -575, -555, -534, -526, -522, -500, -476, -456, -437, -422, -422, -413, -389, -381, -401, -430, -449, -464, -488, -526, -565, -604, -645, -676, -684, -688, -708, -720, -710, -705, -715, -710, -693, -693, -693, -681, -671, -676, -681, -676, -671, -669, -671, -671, -669, -669, -679, -674, -662, -671, -679, -664, -662, -671, -676, -679, -679, -674, -662, -655, -659, -662, -655, -642, -633, -621, -601, -596, -621])
('ECG', 1751734524485004224, [-645, -645, -640, -635, -630, -640, -684, -754, -669, -166, 592, 935, 111, -1140, -1111, -473, -558, -710, -551, -548, -623, -577, -546, -560, -543, -509, -495, -485, -476, -461, -442, -420, -410, -401, -381, -367, -360, -364, -374, -391, -420, -451, -488, -541, -584, -613, -647, -681, -696, -698, -705, -713, -708, -705, -705, -696, -681, -679, -681, -671, -659, -662, -669, -667, -659, -655, -657, -655, -650, -657, -662, -659, -657])
('ECG', 1751734525046504906, [-659, -657, -647, -645, -659, -662, -652, -642, -645, -650, -655, -652, -640, -640, -650, -647, -642, -647, -642, -628, -616, -604, -601, -611, -628, -642, -655, -657, -652, -655, -669, -705, -773, -659, -116, 626, 889, -19, -1208, -1063, -473, -635, -775, -611, -618, -681, -626, -604, -618, -592, -577, -575, -560, -546, -526, -505, -493, -476, -454, -449, -454, -449, -454, -471, -488, -502, -522, -555, -604, -645, -679, -710, -734])
('ECG', 1751734525608005588, [-754, -768, -775, -775, -768, -761, -766, -763, -749, -742, -744, -737, -729, -729, -729, -725, -727, -729, -725, -722, -715, -713, -722, -729, -715, -708, -717, -717, -715, -725, -713, -691, -696, -708, -705, -696, -686, -688, -691, -676, -676, -696, -693, -671, -662, -662, -667, -662, -652, -655, -671, -674, -657, -638, -621, -606, -611, -630, -647, -650, -647, -645, -640, -640, -657, -722, -749, -442, 248, 877, 652, -577, -1252])
('ECG', 1751734526169506270, [-708, -456, -749, -715, -584, -650, -664, -611, -611, -609, -582, -570, -558, -536, -529, -522, -495, -466, -456, -444, -430, -437, -444, -435, -437, -464, -495, -522, -558, -596, -633, -667, -696, -710, -722, -734, -737, -734, -732, -729, -722, -708, -698, -696, -693, -693, -693, -684, -681, -684, -684, -681, -681, -681, -676, -681, -684, -679, -684, -693, -698, -696, -693, -693, -696, -708, -713, -698, -688, -681, -676, -679, -684])
('ECG', 1751734526731012038, [-686, -681, -681, -681, -674, -662, -650, -645, -652, -655, -650, -650, -642, -638, -640, -628, -613, -611, -611, -616, -618, -596, -570, -580, -596, -587, -582, -604, -618, -618, -621, -623, -626, -647, -705, -691, -331, 393, 990, 577, -754, -1232, -599, -464, -746, -645, -546, -642, -630, -560, -570, -570, -536, -531, -526, -509, -500, -488, -466, -459, -451, -430, -408, -403, -403, -406, -410, -422, -444, -480, -512, -543, -589])
('ECG', 1751734527292517806, [-626, -647, -679, -703, -703, -710, -727, -725, -700, -684, -679, -669, -691, -732, -734, -717, -705, -691, -681, -691, -696, -693, -686, -686, -696, -710, -703, -676, -667, -671, -669, -662, -652, -650, -657, -652, -640, -638, -638, -633, -635, -645, -642, -635, -630, -618, -609, -601, -594, -604, -611, -594, -580, -580, -582, -580, -582, -587, -589, -577, -570, -575, -567, -551, -551, -558, -565, -575, -567, -558, -570, -606, -674])
('ECG', 1751734527854023574, [-596, -101, 652, 1027, 261, -1032, -1085, -435, -509, -710, -551, -526, -609, -558, -512, -534, -529, -502, -495, -478, -447, -435, -437, -418, -396, -396, -391, -374, -374, -389, -391, -393, -408, -435, -473, -509, -543, -582, -609, -623, -645, -657, -659, -671, -679, -674, -664, -655, -657, -659, -650, -638, -628, -618, -613, -613, -611, -613, -616, -611, -606, -604, -601, -594, -594, -604, -601, -592, -592, -596, -582, -575, -587])
('ECG', 1751734528415529342, [-589, -580, -580, -589, -596, -589, -577, -580, -582, -565, -555, -560, -555, -541, -541, -546, -543, -543, -534, -524, -529, -534, -526, -524, -519, -507, -502, -502, -505, -500, -488, -490, -514, -529, -534, -541, -538, -538, -570, -638, -628, -287, 398, 988, 659, -604, -1157, -565, -374, -652, -589, -485, -567, -567, -509, -514, -522, -500, -488, -478, -456, -442, -425, -403, -384, -372, -357, -340, -333, -345, -357, -364, -384])
('ECG', 1751734528977035110, [-410, -435, -464, -500, -536, -565, -584, -596, -618, -633, -633, -613, -604, -609, -613, -604, -594, -592, -587, -584, -582, -577, -584, -587, -577, -572, -570, -567, -580, -582, -567, -563, -567, -570, -567, -572, -572, -567, -565, -565, -572, -577, -572, -572, -577, -565, -563, -567, -567, -565, -572, -580, -577, -570, -563, -563, -570, -565, -555, -563, -560, -543, -541, -548, -536, -524, -534, -546, -529, -507, -524, -543, -541])
('ECG', 1751734529538540880, [-546, -553, -553, -551, -572, -635, -613, -217, 507, 995, 476, -763, -1065, -473, -459, -725, -592, -502, -594, -580, -517, -526, -529, -495, -476, -473, -464, -444, -422, -408, -401, -393, -384, -374, -374, -377, -379, -389, -391, -403, -447, -497, -529, -546, -565, -587, -611, -623, -630, -635, -630, -628, -635, -638, -616, -594, -606, -623, -604, -596, -613, -616, -606, -613, -621, -616, -618, -611, -594, -594, -611, -616, -616])
('ECG', 1751734530100041562, [-626, -642, -645, -630, -623, -606, -584, -592, -599, -582, -580, -584, -577, -570, -570, -567, -563, -567, -567, -567, -572, -575, -575, -570, -558, -560, -570, -563, -541, -529, -529, -529, -526, -536, -553, -580, -599, -584, -565, -565, -594, -630, -451, 111, 739, 771, -174, -1039, -742, -333, -536, -587, -447, -497, -551, -490, -466, -485, -468, -444, -432, -415, -403, -403, -389, -364, -352, -350, -355, -372, -389, -393, -406])
('ECG', 1751734530661542244, [-430, -449, -476, -502, -546, -609, -657, -671, -681, -691, -681, -674, -686, -688, -691, -710, -713, -700, -710, -713, -669, -638, -662, -674, -655, -657, -674, -681, -686, -674, -657, -657, -657, -655, -662, -667, -659, -645, -640, -664, -671, -647, -638, -645, -638, -628, -635, -635, -616, -606, -618, -626, -613, -592, -596, -618, -621, -604, -587, -575, -567, -555, -560, -584, -594, -594, -599, -599, -589, -589, -618, -657, -517])
('ECG', 1751734531223042926, [-12, 582, 594, -306, -1090, -812, -435, -563, -567, -456, -514, -541, -490, -505, -526, -500, -478, -461, -432, -427, -435, -420, -393, -369, -352, -355, -377, -391, -396, -418, -430, -420, -451, -519, -563, -592, -640, -681, -688, -684, -686, -696, -703, -688, -674, -679, -681, -664, -655, -657, -647, -628, -628, -647, -655, -640, -628, -633, -630, -628, -623, -613, -609, -613, -611, -601, -601, -601, -587, -592, -599, -592, -592])
('ECG', 1751734531784533434, [-589, -577, -572, -570, -555, -531, -512, -517, -548, -572, -560, -541, -546, -543, -541, -584, -611, -396, 161, 693, 497, -541, -1169, -746, -442, -594, -563, -456, -502, -531, -488, -471, -476, -476, -473, -459, -432, -422, -406, -369, -352, -360, -350, -328, -326, -343, -352, -350, -350, -374, -408, -447, -488, -529, -558, -575, -596, -623, -635, -626, -616, -611, -604, -601, -606, -601, -592, -594, -599, -594, -584, -589, -589])
('ECG', 1751734532346013772, [-567, -551, -563, -575, -582, -580, -563, -558, -563, -567, -563, -558, -555, -541, -526, -538, -553, -526, -495, -507, -519, -495, -488, -534, -567, -558, -548, -541, -538, -551, -594, -630, -435, 130, 703, 596, -393, -1111, -746, -401, -575, -601, -500, -536, -548, -502, -500, -497, -466, -439, -432, -420, -391, -367, -360, -355, -331, -309, -304, -302, -292, -292, -309, -328, -345, -374, -422, -466, -507, -543, -555, -565, -584])
('ECG', 1751734532907544970, [-594, -589, -580, -577, -584, -577, -558, -555, -563, -555, -541, -538, -543, -541, -526, -514, -524, -538, -541, -536, -531, -519, -517, -524, -524, -514, -502, -505, -502, -505, -526, -534, -514, -495, -480, -466, -466, -480, -509, -519, -507, -502, -505, -502, -512, -553, -519, -190, 389, 756, 304, -705, -981, -493, -386, -555, -488, -432, -488, -473, -439, -451, -430, -389, -384, -377, -357, -345, -333, -321, -316, -306, -282])
('ECG', 1751734533469045654, [-268, -280, -287, -277, -287, -326, -364, -403, -444, -466, -485, -514, -534, -548, -572, -577, -572, -580, -580, -565, -555, -555, -560, -563, -565, -575, -567, -551, -551, -567, -565, -546, -546, -555, -563, -560, -551, -565, -582, -560, -531, -546, -580, -577, -555, -536, -534, -541, -548, -551, -548, -534, -514, -524, -543, -531, -514, -517, -529, -531, -538, -548, -560, -587, -613, -439, 60, 589, 538, -364, -1094, -768, -398])
('ECG', 1751734534030546336, [-570, -609, -483, -522, -572, -524, -500, -514, -512, -478, -435, -427, -432, -420, -408, -396, -379, -352, -335, -343, -348, -348, -364, -384, -403, -439, -485, -505, -524, -567, -599, -613, -623, -616, -616, -630, -655, -662, -633, -601, -606, -630, -633, -606, -594, -616, -630, -596, -577, -594, -596, -596, -613, -604, -584, -604, -616, -587, -575, -594, -604, -594, -589, -596, -582, -543, -541, -551, -507, -471, -490, -497, -493])
('ECG', 1751734534592047018, [-524, -534, -500, -514, -580, -565, -219, 444, 867, 333, -821, -1114, -555, -425, -584, -512, -459, -507, -512, -493, -483, -480, -471, -451, -427, -393, -389, -401, -381, -389, -410, -335, -280, -355, -406, -343, -326, -396, -444, -459, -490, -538, -577, -599, -604, -606, -604, -599, -599, -601, -599, -592, -592, -589, -587, -592, -594, -592, -580, -567, -570, -572, -575, -606, -618, -570, -543, -570, -587, -587, -594, -601, -592])
('ECG', 1751734535153537526, [-572, -565, -560, -570, -594, -584, -538, -507, -509, -519, -529, -543, -543, -534, -509, -500, -519, -536, -572, -570, -248, 386, 778, 244, -821, -1003, -456, -418, -613, -512, -444, -493, -471, -447, -471, -459, -432, -427, -415, -391, -379, -362, -343, -348, -338, -302, -319, -357, -345, -331, -350, -374, -403, -444, -466, -500, -548, -575, -604, -630, -618, -587, -580, -584, -584, -580, -570, -570, -565, -555, -563, -577, -558])
('ECG', 1751734535715048382, [-543, -572, -575, -543, -543, -563, -560, -551, -555, -555, -538, -526, -536, -551, -534, -509, -509, -507, -505, -502, -497, -502, -500, -480, -471, -456, -422, -393, -386, -393, -406, -422, -430, -427, -437, -459, -485, -512, -335, 203, 816, 800, -174, -949, -616, -273, -478, -519, -408, -449, -468, -406, -396, -403, -377, -379, -396, -364, -348, -364, -335, -294, -304, -314, -287, -275, -297, -304, -311, -340, -355, -355, -381])
('ECG', 1751734536276579580, [-454, -519, -517, -514, -548, -558, -548, -541, -553, -587, -609, -587, -563, -570, -553, -517, -519, -536, -548, -565, -563, -546, -546, -541, -514, -505, -526, -548, -551, -541, -519, -507, -519, -522, -507, -512, -536, -548, -522, -502, -500, -495, -495, -500, -509, -514, -497, -471, -468, -471, -454, -456, -485, -490, -471, -476, -490, -495, -512, -558, -471, -45, 558, 761, 53, -879, -819, -369, -454, -565, -456, -451, -497])
('ECG', 1751734536838049746, [-471, -449, -447, -435, -418, -401, -386, -374, -360, -345, -333, -319, -311, -302, -290, -292, -297, -299, -314, -323, -352, -403, -425, -435, -464, -493, -507, -524, -531, -524, -522, -531, -531, -517, -505, -502, -507, -500, -490, -493, -495, -490, -497, -512, -517, -509, -512, -514, -509, -522, -538, -534, -531, -529, -500, -505, -543, -536, -524, -536, -531, -517, -526, -558, -546, -495, -507, -551, -500, -468, -529, -551, -538])
('ECG', 1751734537399550428, [-531, -531, -551, -565, -623, -630, -265, 432, 930, 497, -761, -1247, -628, -410, -618, -522, -425, -517, -538, -466, -447, -468, -461, -451, -459, -420, -372, -367, -374, -350, -306, -304, -326, -321, -316, -340, -367, -381, -396, -432, -480, -507, -522, -563, -584, -572, -599, -623, -606, -604, -596, -584, -596, -580, -553, -563, -577, -570, -560, -560, -565, -558, -543, -538, -546, -558, -543, -526, -529, -534, -536, -538, -534])
('ECG', 1751734537961051110, [-526, -526, -536, -541, -534, -526, -517, -497, -493, -493, -478, -483, -512, -512, -500, -509, -507, -497, -536, -596, -456, 94, 802, 947, -67, -1174, -925, -362, -497, -580, -430, -449, -514, -456, -408, -430, -427, -389, -379, -372, -348, -338, -326, -304, -294, -277, -261, -263, -273, -282, -299, -311, -323, -350, -401, -435, -461, -495, -509, -524, -555, -558, -548, -567, -580, -560, -563, -575, -570, -563, -543, -509, -490])
('ECG', 1751734538522551792, [-493, -502, -507, -505, -514, -534, -543, -531, -517, -514, -507, -500, -502, -502, -497, -497, -500, -505, -519, -522, -524, -526, -514, -500, -490, -473, -466, -485, -507, -512, -507, -502, -500, -514, -560, -594, -357, 273, 920, 816, -357, -1206, -729, -323, -543, -546, -410, -461, -480, -420, -413, -420, -398, -391, -386, -364, -355, -355, -338, -316, -297, -280, -268, -270, -275, -273, -287, -316, -340, -364, -398, -442, -473])
('ECG', 1751734539084052474, [-473, -473, -505, -534, -546, -541, -519, -519, -536, -531, -519, -517, -500, -485, -495, -500, -483, -461, -464, -478, -476, -473, -483, -488, -480, -488, -497, -493, -500, -493, -464, -478, -507, -473, -439, -488, -517, -493, -483, -471, -430, -413, -432, -459, -483, -490, -483, -473, -483, -512, -548, -551, -302, 309, 913, 773, -350, -1087, -616, -282, -522, -514, -386, -456, -495, -425, -391, -406, -393, -348, -326, -340, -331])
('ECG', 1751734539645553156, [-287, -265, -277, -270, -241, -246, -277, -251, -222, -253, -268, -268, -335, -415, -444, -435, -418, -451, -488, -478, -512, -565, -541, -509, -534, -553, -512, -488, -524, -524, -497, -495, -478, -500, -538, -497, -476, -517, -519, -466, -437, -480, -529, -505, -476, -493, -480, -473, -497, -447, -401, -456, -497, -497, -493, -480, -497, -500, -468, -456, -471, -461, -437, -468, -519, -524, -497, -442, -427, -497, -555, -551, -386])
('ECG', 1751734540207084356, [123, 780, 899, -24, -993, -749, -234, -398, -524, -355, -350, -439, -408, -384, -396, -372, -338, -309, -299, -299, -285, -297, -360, -355, -258, -229, -265, -261, -256, -258, -236, -263, -326, -352, -381, -437, -485, -524, -531, -495, -466, -483, -512, -512, -490, -488, -509, -534, -526, -471, -435, -451, -468, -466, -478, -493, -485, -478, -488, -485, -471, -456, -456, -459, -449, -454, -480, -505, -514, -483, -442, -449, -485])
('ECG', 1751734540768585038, [-509, -514, -497, -478, -485, -483, -461, -468, -476, -449, -437, -464, -488, -488, -473, -471, -485, -485, -483, -551, -524, -94, 599, 957, 309, -848, -959, -364, -364, -543, -439, -430, -488, -442, -403, -393, -389, -398, -372, -333, -343, -352, -323, -292, -290, -299, -287, -263, -275, -302, -304, -311, -335, -355, -372, -406, -439, -464, -495, -519, -522, -526, -531, -538, -538, -517, -493, -478, -466, -461, -459, -459, -459])
('ECG', 1751734541330085720, [-454, -456, -464, -471, -478, -476, -476, -480, -466, -464, -483, -488, -480, -483, -480, -478, -476, -473, -476, -485, -490, -483, -476, -476, -464, -449, -444, -430, -410, -435, -483, -488, -471, -478, -495, -495, -526, -604, -485, 96, 870, 1039, -36, -1210, -916, -321, -507, -587, -410, -427, -478, -425, -418, -430, -401, -381, -379, -364, -340, -323, -311, -292, -277, -275, -273, -270, -270, -282, -302, -326, -352, -379, -410])
('ECG', 1751734541891586402, [-451, -483, -495, -502, -519, -531, -522, -517, -529, -526, -512, -509, -509, -500, -488, -476, -466, -466, -466, -468, -468, -466, -468, -476, -476, -466, -466, -471, -473, -471, -473, -473, -468, -464, -464, -464, -461, -464, -468, -468, -456, -432, -420, -422, -418, -422, -444, -454, -449, -444, -437, -439, -490, -558, -386, 232, 957, 974, -174, -1145, -717, -244, -478, -502, -335, -386, -430, -360, -352, -377, -350, -331, -331])
('ECG', 1751734542453087084, [-314, -297, -290, -282, -273, -261, -248, -246, -246, -246, -261, -277, -294, -321, -345, -369, -410, -449, -464, -478, -509, -524, -519, -526, -536, -538, -538, -541, -541, -538, -538, -546, -555, -563, -565, -563, -560, -558, -555, -558, -558, -546, -538, -546, -551, -548, -541, -536, -543, -543, -534, -529, -529, -529, -522, -517, -519, -526, -529, -529, -517, -497, -480, -471, -464, -461, -478, -497, -490, -483, -485, -483, -485])
('ECG', 1751734543014587766, [-541, -548, -190, 524, 1029, 551, -679, -1046, -442, -328, -572, -485, -406, -480, -468, -415, -420, -413, -386, -374, -357, -333, -319, -304, -287, -277, -273, -265, -253, -253, -256, -261, -273, -292, -311, -333, -364, -398, -427, -447, -468, -478, -478, -478, -480, -483, -480, -473, -468, -473, -476, -471, -468, -471, -468, -473, -483, -483, -471, -468, -485, -493, -483, -480, -478, -471, -480, -488, -488, -478, -471, -473, -476])
('ECG', 1751734543576093534, [-478, -476, -466, -464, -466, -461, -461, -468, -466, -461, -461, -464, -471, -466, -456, -447, -432, -425, -425, -427, -444, -459, -451, -435, -435, -444, -478, -558, -517, -70, 650, 1036, 362, -838, -945, -340, -369, -567, -447, -413, -483, -444, -398, -408, -401, -367, -348, -335, -323, -311, -294, -280, -258, -244, -244, -251, -256, -256, -265, -285, -299, -319, -348, -381, -410, -432, -456, -480, -502, -517, -519, -509, -500])
('ECG', 1751734544137599302, [-517, -548, -555, -538, -536, -538, -536, -541, -546, -538, -531, -529, -536, -538, -531, -526, -534, -536, -529, -529, -534, -534, -526, -517, -517, -514, -500, -490, -488, -495, -502, -502, -493, -488, -490, -490, -485, -478, -471, -485, -497, -476, -449, -456, -461, -444, -439, -461, -444, -386, -357, -367, -367, -381, -449, -415, 7, 717, 1145, 509, -758, -949, -311, -290, -493, -369, -326, -401, -367, -321, -340, -333, -294])
('ECG', 1751734544699089812, [-287, -280, -256, -246, -246, -236, -222, -215, -215, -215, -217, -227, -244, -261, -277, -294, -319, -350, -381, -398, -420, -454, -468, -471, -478, -476, -464, -468, -478, -473, -464, -459, -456, -454, -464, -464, -447, -437, -439, -439, -439, -444, -444, -442, -449, -451, -437, -435, -449, -454, -444, -437, -437, -432, -430, -432, -427, -432, -432, -422, -427, -435, -425, -420, -430, -439, -444, -439, -427, -410, -401, -389, -381])
('ECG', 1751734545260610838, [-401, -425, -435, -435, -430, -430, -444, -493, -548, -357, 256, 945, 949, -132, -1046, -640, -205, -456, -502, -345, -386, -427, -364, -348, -357, -333, -319, -319, -302, -282, -270, -261, -256, -251, -246, -232, -227, -241, -258, -261, -270, -294, -323, -348, -374, -408, -430, -442, -459, -473, -478, -483, -483, -483, -478, -464, -459, -466, -468, -461, -456, -459, -459, -456, -459, -464, -464, -459, -456, -459, -456, -451, -449])
('ECG', 1751734545822121694, [-451, -449, -442, -447, -456, -444, -430, -432, -439, -435, -435, -439, -439, -437, -427, -391, -319, -290, -352, -398, -391, -393, -408, -408, -406, -403, -398, -381, -364, -357, -357, -374, -401, -418, -427, -432, -427, -432, -471, -526, -396, 137, 843, 1034, 120, -942, -739, -229, -420, -534, -377, -393, -447, -386, -367, -384, -357, -338, -343, -331, -309, -290, -275, -265, -256, -241, -236, -244, -251, -258, -273, -290, -304])
('ECG', 1751734546383622376, [-326, -350, -374, -406, -432, -451, -473, -480, -485, -493, -493, -483, -473, -478, -485, -483, -478, -476, -473, -478, -476, -471, -473, -478, -476, -483, -488, -488, -488, -493, -488, -480, -478, -478, -478, -483, -488, -476, -468, -478, -483, -473, -468, -471, -466, -461, -464, -456, -451, -456, -447, -427, -435, -449, -447, -447, -461, -461, -432, -410, -413, -413, -403, -406, -420, -430, -430, -427, -432, -437, -456, -517, -478])
('ECG', 1751734546945123058, [-62, 633, 1034, 425, -754, -918, -328, -335, -543, -415, -374, -459, -422, -367, -391, -391, -352, -333, -328, -311, -287, -270, -263, -261, -251, -251, -261, -261, -263, -282, -299, -316, -335, -357, -377, -403, -435, -461, -478, -493, -502, -502, -502, -502, -493, -480, -483, -495, -495, -485, -488, -495, -490, -480, -476, -476, -473, -480, -490, -485, -485, -490, -488, -483, -473, -464, -464, -466, -468, -471, -473, -466, -459])
('ECG', 1751734547506623740, [-459, -442, -413, -413, -437, -439, -425, -435, -442, -427, -422, -432, -427, -425, -435, -435, -422, -415, -410, -401, -384, -379, -408, -427, -418, -413, -422, -427, -437, -490, -534, -302, 338, 959, 768, -398, -1090, -572, -258, -493, -464, -345, -415, -430, -372, -379, -389, -357, -335, -331, -319, -304, -290, -277, -268, -258, -253, -258, -263, -270, -290, -306, -311, -314, -338, -372, -401, -415, -432, -456, -480, -490, -490])
('ECG', 1751734548068124422, [-485, -483, -485, -480, -476, -476, -480, -483, -483, -480, -480, -473, -471, -483, -480, -473, -480, -483, -471, -473, -476, -473, -476, -480, -473, -466, -461, -459, -456, -454, -456, -461, -454, -437, -430, -435, -442, -432, -427, -437, -437, -432, -439, -435, -427, -427, -425, -418, -425, -427, -415, -398, -391, -393, -384, -364, -372, -401, -418, -422, -418, -408, -410, -449, -522, -437, 43, 732, 976, 152, -940, -845, -299])
('ECG', 1751734548629625104, [-391, -500, -355, -360, -422, -374, -343, -355, -333, -306, -306, -302, -287, -277, -263, -244, -241, -246, -244, -248, -261, -273, -290, -309, -314, -319, -343, -372, -393, -415, -432, -444, -459, -476, -478, -473, -476, -476, -466, -459, -459, -461, -456, -449, -447, -451, -454, -456, -454, -456, -459, -447, -435, -435, -435, -422, -420, -432, -432, -420, -420, -420, -418, -420, -420, -415, -408, -410, -408, -408, -403, -401, -396])
('ECG', 1751734549191125786, [-391, -391, -393, -401, -406, -406, -408, -406, -389, -369, -367, -357, -340, -357, -393, -406, -393, -391, -401, -408, -461, -505, -263, 364, 954, 763, -357, -1015, -512, -203, -444, -427, -306, -367, -384, -321, -321, -333, -302, -285, -282, -270, -256, -239, -215, -195, -200, -200, -190, -188, -198, -205, -219, -244, -265, -287, -311, -352, -393, -408, -413, -435, -451, -449, -444, -444, -447, -444, -435, -432, -437, -430, -422])
('ECG', 1751734549752626468, [-425, -422, -415, -415, -422, -418, -410, -415, -415, -408, -408, -406, -408, -408, -406, -403, -406, -401, -403, -410, -403, -391, -398, -408, -406, -401, -403, -406, -410, -413, -403, -396, -398, -403, -403, -406, -406, -389, -372, -360, -350, -362, -391, -403, -398, -391, -391, -391, -413, -483, -439, -7, 700, 1061, 379, -787, -870, -261, -290, -493, -364, -323, -393, -355, -323, -345, -326, -302, -302, -290, -275, -263, -248])
('ECG', 1751734550314132236, [-236, -229, -222, -217, -210, -217, -234, -246, -253, -273, -290, -309, -345, -386, -413, -427, -449, -464, -461, -464, -478, -480, -476, -468, -466, -471, -468, -454, -444, -447, -444, -442, -447, -451, -447, -437, -432, -420, -415, -422, -425, -422, -425, -427, -420, -413, -410, -410, -418, -415, -398, -391, -396, -398, -396, -398, -403, -398, -391, -398, -403, -393, -391, -403, -420, -422, -406, -384, -369, -369, -372, -364, -379])
('ECG', 1751734550875638004, [-408, -420, -418, -410, -401, -401, -437, -488, -297, 306, 952, 887, -205, -1041, -621, -217, -427, -449, -326, -377, -398, -338, -333, -343, -316, -287, -285, -275, -253, -241, -239, -224, -212, -210, -205, -205, -224, -234, -239, -258, -285, -314, -343, -364, -384, -413, -439, -461, -476, -480, -480, -483, -483, -483, -476, -449, -439, -456, -459, -454, -461, -451, -435, -444, -454, -442, -439, -447, -437, -425, -430, -437, -442])
('ECG', 1751734551437128514, [-447, -442, -427, -430, -442, -437, -435, -444, -444, -435, -439, -456, -456, -439, -437, -439, -430, -420, -425, -427, -427, -427, -427, -410, -396, -389, -372, -357, -369, -381, -381, -379, -372, -364, -372, -398, -468, -468, -82, 655, 1116, 507, -763, -998, -360, -299, -497, -369, -306, -381, -374, -333, -335, -319, -294, -294, -292, -263, -236, -224, -219, -205, -193, -195, -200, -219, -241, -244, -251, -275, -302, -328, -360])
('ECG', 1751734551998629196, [-389, -406, -427, -451, -461, -468, -478, -483, -488, -483, -468, -468, -468, -449, -439, -451, -451, -447, -449, -435, -425, -432, -432, -430, -437, -435, -427, -430, -437, -432, -420, -415, -425, -432, -422, -410, -410, -413, -401, -396, -403, -401, -391, -389, -386, -377, -374, -374, -364, -369, -381, -374, -367, -377, -372, -360, -352, -333, -316, -309, -323, -348, -350, -348, -362, -362, -357, -389, -473, -468, -77, 652, 1135])
('ECG', 1751734552560129878, [575, -710, -1007, -367, -275, -493, -374, -306, -391, -364, -309, -323, -314, -282, -280, -263, -239, -239, -229, -198, -188, -190, -188, -188, -195, -200, -219, -248, -270, -287, -311, -340, -372, -401, -415, -420, -435, -451, -451, -449, -451, -451, -454, -447, -435, -432, -437, -439, -439, -439, -435, -432, -437, -435, -427, -427, -439, -439, -437, -444, -439, -427, -435, -444, -442, -437, -439, -435, -430, -427, -427, -425, -413])
('ECG', 1751734553121630560, [-401, -401, -401, -396, -391, -393, -393, -391, -389, -389, -386, -381, -367, -352, -348, -345, -345, -352, -364, -379, -379, -362, -357, -386, -456, -468, -140, 570, 1167, 812, -478, -1015, -389, -198, -485, -401, -287, -379, -381, -326, -340, -340, -309, -287, -273, -263, -256, -241, -227, -215, -207, -198, -193, -203, -224, -232, -236, -261, -294, -316, -328, -360, -389, -410, -437, -451, -451, -454, -454, -447, -442, -439, -432])
('ECG', 1751734553683136328, [-425, -425, -422, -420, -415, -408, -398, -389, -386, -393, -398, -393, -381, -384, -396, -403, -401, -401, -401, -401, -401, -401, -398, -393, -391, -389, -381, -379, -379, -381, -379, -374, -372, -377, -374, -369, -372, -374, -369, -364, -364, -369, -377, -379, -367, -352, -343, -340, -331, -311, -321, -348, -352, -340, -335, -343, -350, -372, -439, -398, 53, 778, 1160, 466, -756, -843, -224, -275, -476, -335, -309, -384, -345])
('ECG', 1751734554244662442, [-306, -323, -304, -285, -292, -280, -248, -236, -232, -217, -203, -190, -188, -190, -193, -205, -222, -239, -256, -268, -290, -328, -367, -401, -430, -454, -468, -468, -473, -480, -476, -468, -461, -459, -461, -454, -442, -437, -439, -435, -435, -437, -432, -425, -420, -415, -418, -418, -418, -418, -413, -406, -406, -398, -389, -398, -403, -393, -391, -389, -384, -379, -379, -381, -381, -374, -367, -367, -367, -364, -367, -374, -372])
('ECG', 1751734554806163124, [-369, -367, -369, -379, -374, -352, -340, -338, -319, -302, -316, -348, -355, -348, -348, -352, -350, -377, -454, -401, 67, 792, 1143, 422, -771, -816, -215, -282, -478, -340, -314, -391, -352, -321, -345, -328, -294, -292, -287, -256, -236, -236, -227, -210, -210, -232, -246, -241, -251, -275, -292, -302, -321, -348, -386, -422, -449, -471, -485, -497, -507, -514, -512, -507, -507, -490, -464, -449, -449, -444, -437, -435, -437])
('ECG', 1751734555367663806, [-437, -435, -430, -437, -444, -437, -435, -444, -456, -466, -471, -464, -451, -449, -449, -447, -444, -444, -439, -432, -430, -432, -430, -420, -418, -420, -415, -403, -393, -393, -389, -379, -379, -381, -381, -384, -377, -364, -369, -374, -374, -374, -369, -372, -381, -377, -357, -348, -343, -333, -326, -335, -367, -381, -362, -345, -352, -369, -415, -483, -348, 210, 906, 1080, 171, -899, -703, -178, -362, -485, -328, -335, -396])
('ECG', 1751734555929164488, [-350, -328, -333, -309, -294, -292, -273, -246, -234, -232, -219, -203, -188, -181, -178, -181, -178, -176, -190, -212, -232, -261, -297, -326, -350, -374, -406, -422, -425, -435, -449, -451, -444, -439, -430, -413, -408, -410, -401, -401, -406, -406, -398, -391, -391, -393, -393, -391, -386, -381, -379, -379, -379, -384, -389, -381, -374, -369, -377, -389, -384, -374, -381, -379, -372, -367, -355, -345, -352, -364, -369, -367, -367])
('ECG', 1751734556490665170, [-372, -369, -357, -355, -357, -355, -357, -364, -372, -372, -357, -335, -331, -328, -314, -319, -340, -352, -355, -362, -364, -364, -391, -464, -410, 53, 785, 1131, 350, -865, -874, -270, -343, -502, -352, -343, -425, -384, -343, -352, -331, -309, -306, -294, -273, -261, -256, -248, -239, -222, -212, -217, -229, -239, -256, -273, -287, -309, -326, -348, -384, -413, -435, -459, -471, -473, -476, -476, -478, -468, -461, -454, -447])
('ECG', 1751734557052165852, [-432, -425, -427, -427, -422, -425, -427, -420, -418, -422, -418, -415, -410, -386, -377, -386, -379, -367, -362, -357, -348, -345, -352, -360, -360, -355, -357, -355, -352, -357, -357, -348, -348, -350, -348, -345, -348, -357, -357, -357, -355, -355, -357, -357, -348, -343, -340, -340, -348, -352, -343, -345, -352, -335, -311, -314, -314, -302, -306, -321, -328, -338, -343, -335, -338, -377, -451, -418, -14, 691, 1155, 601, -650])
('ECG', 1751734557613666534, [-913, -285, -236, -473, -367, -299, -364, -345, -316, -335, -333, -306, -292, -282, -268, -253, -234, -212, -198, -188, -176, -169, -169, -181, -193, -203, -222, -241, -261, -294, -335, -360, -374, -389, -403, -413, -418, -422, -422, -418, -406, -398, -401, -403, -396, -398, -398, -391, -389, -389, -384, -384, -386, -384, -381, -384, -384, -389, -391, -386, -381, -389, -396, -398, -401, -396, -391, -391, -386, -389, -396, -389, -372])
('ECG', 1751734558175167216, [-367, -377, -381, -379, -377, -384, -386, -384, -379, -362, -343, -340, -357, -364, -357, -360, -367, -364, -364, -367, -369, -369, -374, -379, -367, -345, -338, -335, -328, -335, -355, -367, -372, -374, -369, -364, -381, -447, -466, -152, 538, 1119, 800, -427, -990, -415, -195, -461, -422, -323, -389, -384, -331, -338, -335, -304, -294, -290, -265, -246, -239, -224, -210, -203, -188, -171, -169, -176, -183, -195, -212, -229, -261])
('ECG', 1751734558736667898, [-302, -335, -367, -393, -410, -420, -437, -449, -442, -427, -422, -422, -415, -410, -408, -401, -396, -393, -393, -393, -391, -386, -386, -391, -391, -386, -393, -408, -415, -406, -393, -398, -406, -403, -393, -393, -398, -401, -401, -391, -381, -391, -398, -386, -379, -384, -379, -372, -377, -374, -362, -367, -384, -381, -372, -372, -374, -369, -364, -362, -355, -350, -350, -348, -338, -333, -331, -326, -323, -340, -367, -369, -355])
('ECG', 1751734559298168580, [-352, -355, -357, -410, -442, -132, 553, 1133, 829, -396, -971, -391, -174, -461, -410, -290, -369, -379, -311, -311, -316, -287, -268, -258, -239, -229, -222, -205, -193, -188, -169, -154, -154, -152, -149, -171, -200, -219, -239, -270, -309, -350, -377, -389, -398, -418, -432, -432, -430, -430, -420, -413, -413, -413, -406, -393, -393, -398, -396, -386, -384, -389, -393, -398, -393, -396, -398, -393, -389, -396, -401, -403, -401])
('ECG', 1751734559859669262, [-393, -398, -403, -403, -408, -415, -410, -393, -391, -393, -386, -374, -379, -391, -391, -381, -391, -406, -398, -389, -393, -396, -391, -398, -413, -420, -410, -393, -379, -364, -352, -345, -360, -384, -396, -393, -398, -401, -396, -439, -502, -294, 340, 1007, 976, -118, -1027, -638, -215, -456, -502, -350, -393, -427, -362, -343, -350, -335, -331, -323, -297, -275, -275, -270, -253, -236, -224, -212, -200, -207, -215, -215, -234])
('ECG', 1751734560421169944, [-258, -280, -309, -335, -362, -393, -418, -427, -437, -449, -447, -444, -449, -447, -437, -430, -425, -425, -418, -408, -408, -415, -415, -408, -406, -413, -418, -425, -432, -427, -432, -442, -427, -406, -401, -403, -415, -418, -408, -415, -430, -420, -413, -408, -401, -410, -432, -435, -430, -432, -432, -435, -437, -435, -425, -415, -403, -386, -374, -372, -381, -396, -408, -410, -398, -384, -389, -427, -490, -367, 190, 928, 1106])
('ECG', 1751734560982670626, [118, -1005, -771, -203, -367, -459, -292, -316, -367, -302, -287, -321, -294, -253, -244, -234, -219, -207, -190, -181, -181, -169, -149, -147, -157, -164, -176, -200, -222, -246, -280, -306, -331, -355, -381, -396, -408, -422, -432, -430, -420, -408, -408, -406, -396, -393, -389, -372, -369, -374, -357, -326, -326, -355, -362, -355, -350, -360, -367, -379, -403, -415, -406, -408, -415, -413, -410, -408, -396, -386, -377, -374, -379])
('ECG', 1751734561544156048, [-379, -364, -355, -352, -352, -355, -364, -364, -364, -367, -364, -362, -357, -350, -345, -338, -319, -309, -335, -357, -345, -338, -343, -331, -323, -374, -425, -193, 454, 1094, 949, -219, -993, -495, -145, -406, -401, -263, -321, -343, -285, -287, -299, -265, -244, -246, -236, -217, -205, -188, -176, -169, -152, -140, -140, -147, -152, -164, -176, -188, -212, -256, -297, -333, -360, -381, -398, -408, -410, -415, -415, -408, -408])
('ECG', 1751734562105661816, [-413, -406, -393, -389, -393, -401, -396, -386, -389, -393, -389, -384, -381, -377, -372, -369, -367, -348, -328, -340, -364, -362, -357, -374, -379, -369, -377, -384, -377, -374, -377, -372, -364, -367, -364, -357, -348, -338, -331, -338, -340, -326, -314, -311, -302, -285, -292, -316, -331, -328, -323, -321, -326, -362, -432, -345, 164, 891, 1162, 333, -812, -739, -181, -316, -476, -319, -306, -381, -343, -304, -314, -297, -273])
('ECG', 1751734562667172672, [-263, -253, -232, -210, -190, -176, -159, -152, -147, -145, -152, -159, -164, -176, -193, -210, -234, -268, -304, -335, -362, -384, -393, -401, -403, -406, -408, -403, -391, -391, -396, -386, -374, -374, -377, -372, -369, -372, -369, -362, -364, -369, -369, -369, -369, -367, -369, -372, -372, -374, -374, -374, -377, -372, -362, -355, -352, -362, -362, -348, -343, -350, -350, -360, -367, -355, -331, -319, -316, -306, -299, -316, -331])
('ECG', 1751734563228673354, [-333, -335, -335, -338, -350, -396, -396, -60, 638, 1160, 729, -478, -899, -333, -207, -454, -377, -285, -350, -345, -299, -304, -292, -263, -258, -258, -241, -217, -193, -178, -174, -166, -159, -149, -137, -142, -164, -183, -207, -236, -265, -302, -343, -377, -401, -415, -425, -437, -447, -442, -442, -451, -444, -430, -435, -437, -425, -418, -418, -420, -420, -425, -430, -425, -415, -415, -422, -420, -418, -420, -422, -420, -415])
('ECG', 1751734563790174036, [-418, -425, -430, -430, -420, -415, -418, -413, -403, -396, -396, -398, -398, -393, -386, -384, -384, -379, -381, -381, -369, -357, -352, -340, -331, -338, -362, -374, -367, -357, -357, -364, -403, -468, -374, 130, 841, 1073, 200, -916, -795, -227, -331, -442, -299, -309, -369, -321, -297, -306, -282, -256, -251, -234, -207, -190, -183, -176, -157, -142, -147, -145, -140, -145, -154, -174, -205, -236, -261, -290, -326, -362, -393])
('ECG', 1751734564351674718, [-408, -420, -444, -451, -435, -430, -427, -408, -403, -418, -420, -408, -406, -410, -410, -406, -410, -413, -403, -403, -413, -413, -413, -415, -415, -422, -425, -413, -401, -403, -408, -408, -406, -406, -408, -398, -389, -396, -393, -381, -384, -389, -377, -360, -343, -333, -323, -314, -331, -357, -357, -343, -340, -352, -367, -398, -459, -299, 321, 1044, 1068, -33, -1012, -645, -169, -369, -401, -251, -299, -335, -273, -265, -280])
('ECG', 1751734564913175400, [-256, -239, -241, -227, -210, -193, -176, -164, -154, -142, -132, -132, -137, -145, -159, -183, -212, -236, -265, -302, -335, -362, -386, -396, -398, -410, -415, -413, -406, -396, -391, -391, -386, -377, -379, -377, -369, -377, -381, -389, -410, -425, -420, -406, -406, -413, -415, -403, -401, -406, -413, -413, -408, -406, -408, -403, -398, -398, -398, -391, -386, -384, -386, -381, -377, -377, -364, -355, -364, -374, -360, -335, -316])
('ECG', 1751734565474676082, [-309, -304, -304, -323, -345, -350, -340, -331, -328, -333, -381, -425, -174, 500, 1126, 891, -314, -978, -435, -152, -427, -393, -265, -345, -357, -287, -287, -299, -273, -263, -263, -246, -227, -215, -198, -181, -171, -159, -157, -159, -164, -174, -190, -210, -234, -258, -285, -319, -352, -372, -386, -398, -413, -415, -406, -403, -408, -403, -398, -403, -403, -398, -396, -398, -398, -391, -389, -393, -386, -384, -391, -391, -381])
('ECG', 1751734566036176764, [-377, -377, -374, -367, -374, -386, -381, -374, -381, -389, -384, -379, -379, -381, -381, -377, -372, -369, -364, -362, -364, -364, -357, -360, -364, -364, -360, -357, -357, -360, -360, -345, -331, -311, -294, -294, -304, -319, -321, -311, -304, -304, -309, -328, -393, -408, -87, 604, 1164, 831, -360, -879, -338, -161, -422, -367, -268, -340, -343, -292, -297, -292, -270, -265, -261, -236, -217, -205, -188, -171, -157, -149, -149])
('ECG', 1751734566597677446, [-152, -164, -176, -190, -210, -222, -241, -268, -297, -331, -362, -381, -393, -408, -415, -413, -406, -403, -401, -396, -393, -389, -384, -389, -391, -389, -386, -391, -396, -393, -398, -406, -410, -420, -420, -401, -391, -396, -384, -374, -389, -398, -391, -389, -386, -381, -381, -381, -377, -379, -379, -372, -357, -350, -352, -350, -352, -352, -338, -331, -340, -343, -335, -335, -333, -333, -331, -333, -340, -340, -328, -314, -302])
('ECG', 1751734567159178128, [-302, -297, -309, -335, -345, -328, -321, -331, -340, -367, -425, -321, 195, 894, 1106, 268, -802, -686, -164, -311, -449, -297, -304, -374, -323, -292, -304, -282, -256, -253, -239, -215, -207, -195, -174, -161, -164, -169, -169, -169, -171, -183, -207, -227, -248, -275, -302, -333, -364, -386, -398, -413, -427, -437, -439, -425, -420, -430, -425, -408, -406, -410, -406, -406, -408, -406, -406, -413, -413, -408, -413, -415, -415])
('ECG', 1751734567720678810, [-420, -425, -413, -401, -410, -413, -396, -398, -408, -393, -386, -398, -398, -391, -391, -396, -396, -391, -391, -403, -401, -384, -381, -384, -369, -355, -355, -355, -352, -362, -369, -364, -343, -319, -316, -311, -299, -311, -335, -335, -326, -323, -326, -345, -393, -454, -290, 306, 1005, 1032, -31, -990, -647, -176, -364, -415, -282, -321, -352, -299, -294, -304, -273, -258, -261, -244, -232, -217, -188, -169, -161, -152, -145])
('ECG', 1751734568282179492, [-145, -145, -159, -188, -215, -232, -253, -282, -314, -340, -367, -393, -403, -406, -415, -418, -413, -403, -393, -386, -386, -384, -377, -372, -374, -386, -391, -379, -372, -372, -367, -360, -362, -367, -362, -355, -355, -355, -345, -333, -338, -343, -335, -331, -326, -323, -328, -333, -328, -319, -316, -316, -306, -299, -299, -304, -304, -304, -302, -304, -314, -321, -321, -314, -292, -277, -270, -270, -290, -309, -316, -311, -309])
('ECG', 1751734568843700518, [-311, -323, -377, -413, -149, 519, 1133, 901, -292, -959, -418, -123, -381, -348, -224, -292, -304, -251, -265, -280, -246, -222, -217, -200, -178, -176, -171, -154, -137, -125, -113, -111, -120, -130, -137, -154, -176, -200, -229, -265, -294, -311, -328, -348, -364, -369, -369, -372, -369, -364, -357, -357, -360, -357, -350, -345, -348, -345, -340, -343, -340, -331, -326, -319, -304, -290, -287, -280, -275, -277, -277, -270, -263])
('ECG', 1751734569405180856, [-261, -273, -282, -280, -270, -263, -258, -258, -265, -265, -261, -261, -258, -256, -258, -268, -270, -270, -273, -273, -263, -261, -273, -277, -280, -282, -277, -261, -248, -248, -248, -258, -287, -321, -345, -362, -377, -386, -401, -464, -502, -224, 454, 1058, 829, -328, -957, -447, -195, -461, -427, -309, -381, -391, -328, -331, -328, -294, -282, -273, -251, -239, -229, -217, -200, -186, -178, -169, -169, -178, -186, -188, -203])
('ECG', 1751734569966681538, [-227, -251, -275, -309, -340, -364, -381, -393, -396, -403, -410, -413, -406, -398, -391, -386, -386, -381, -372, -372, -374, -374, -367, -355, -357, -362, -362, -362, -360, -357, -355, -360, -357, -357, -362, -362, -355, -352, -357, -360, -360, -360, -352, -345, -343, -340, -335, -331, -328, -328, -323, -321, -316, -311, -311, -311, -309, -304, -297, -302, -309, -309, -314, -319, -306, -290, -290, -287, -275, -287, -314, -323, -323])
('ECG', 1751734570528182220, [-316, -314, -323, -360, -410, -253, 314, 988, 1063, 99, -858, -589, -142, -355, -435, -280, -311, -367, -309, -277, -292, -285, -265, -258, -244, -222, -207, -188, -169, -164, -154, -142, -137, -145, -157, -164, -178, -200, -222, -246, -277, -311, -340, -362, -379, -396, -406, -413, -420, -425, -422, -415, -415, -415, -406, -398, -401, -398, -391, -396, -401, -393, -384, -384, -386, -386, -389, -389, -393, -398, -403, -398, -393])
('ECG', 1751734571089682902, [-393, -384, -377, -372, -369, -377, -381, -372, -362, -355, -352, -357, -357, -348, -345, -352, -357, -355, -348, -343, -340, -340, -343, -345, -345, -328, -309, -302, -292, -290, -306, -319, -323, -331, -333, -323, -323, -357, -425, -360, 82, 768, 1085, 377, -756, -797, -215, -270, -454, -321, -292, -364, -323, -285, -306, -302, -268, -265, -263, -239, -219, -215, -207, -190, -178, -176, -186, -205, -212, -207, -212, -229, -253])
('ECG', 1751734571651183584, [-277, -302, -333, -369, -403, -420, -432, -442, -447, -442, -432, -422, -420, -418, -408, -401, -401, -401, -393, -391, -389, -386, -377, -374, -381, -379, -374, -374, -369, -372, -379, -369, -357, -357, -362, -364, -362, -360, -357, -355, -355, -357, -350, -343, -350, -348, -340, -340, -338, -326, -331, -338, -331, -328, -333, -331, -331, -338, -335, -328, -321, -304, -304, -311, -302, -306, -338, -352, -350, -345, -343, -348, -386])
('ECG', 1751734572212684266, [-444, -326, 215, 928, 1068, 94, -947, -710, -200, -350, -413, -263, -292, -335, -277, -265, -282, -251, -224, -227, -219, -198, -181, -174, -161, -152, -145, -130, -128, -140, -147, -159, -186, -210, -229, -256, -290, -319, -340, -360, -379, -389, -391, -396, -403, -398, -396, -396, -398, -389, -377, -374, -374, -362, -360, -374, -379, -362, -357, -360, -357, -360, -360, -355, -357, -364, -352, -343, -350, -350, -343, -355, -369])
('ECG', 1751734572774184948, [-357, -335, -340, -355, -355, -335, -328, -338, -338, -321, -319, -326, -333, -333, -323, -306, -297, -297, -287, -290, -316, -333, -328, -321, -321, -328, -357, -418, -384, 41, 773, 1164, 471, -766, -894, -263, -246, -422, -299, -270, -338, -299, -261, -280, -265, -236, -234, -229, -205, -190, -183, -166, -154, -147, -147, -152, -152, -154, -174, -195, -210, -236, -270, -302, -338, -372, -393, -415, -432, -432, -430, -425, -422])
('ECG', 1751734573335685630, [-418, -398, -386, -391, -391, -381, -381, -381, -377, -372, -377, -377, -372, -367, -364, -372, -374, -362, -355, -362, -367, -362, -364, -364, -355, -348, -345, -343, -331, -323, -326, -328, -328, -331, -331, -326, -326, -328, -328, -328, -328, -335, -331, -314, -299, -294, -285, -280, -299, -326, -331, -323, -321, -323, -333, -381, -430, -217, 420, 1094, 1036, -62, -913, -490, -96, -352, -391, -251, -302, -335, -275, -263, -273])
('ECG', 1751734573897186312, [-251, -232, -227, -210, -193, -188, -174, -154, -145, -137, -125, -125, -135, -145, -152, -164, -190, -222, -248, -275, -306, -333, -350, -357, -367, -374, -377, -379, -374, -369, -369, -372, -372, -364, -355, -350, -352, -348, -345, -338, -331, -328, -323, -321, -328, -328, -323, -326, -328, -331, -331, -323, -319, -319, -321, -314, -306, -306, -304, -299, -304, -306, -311, -314, -311, -311, -311, -309, -314, -316, -311, -306, -309])
('ECG', 1751734574458686994, [-314, -321, -326, -323, -314, -299, -290, -282, -275, -287, -314, -323, -314, -309, -314, -319, -343, -410, -345, 125, 853, 1201, 483, -691, -744, -169, -251, -459, -357, -355, -427, -386, -352, -364, -343, -304, -292, -292, -275, -239, -210, -200, -190, -176, -169, -171, -183, -207, -224, -229, -241, -265, -287, -304, -338, -372, -386, -398, -420, -435, -439, -437, -432, -430, -435, -422, -406, -403, -396, -381, -377, -377, -372])
('ECG', 1751734575020187676, [-362, -355, -357, -352, -333, -326, -321, -311, -299, -294, -294, -297, -292, -290, -290, -290, -287, -290, -294, -294, -294, -294, -299, -299, -297, -294, -302, -314, -306, -302, -326, -348, -352, -362, -369, -369, -367, -360, -352, -364, -360, -328, -309, -319, -316, -306, -326, -355, -360, -348, -348, -364, -377, -403, -459, -304, 263, 930, 976, -36, -981, -657, -200, -403, -466, -340, -393, -410, -311, -292, -323, -292, -256])
('ECG', 1751734575581688358, [-258, -258, -246, -239, -212, -178, -176, -188, -181, -178, -205, -234, -229, -217, -232, -263, -287, -309, -355, -396, -413, -435, -454, -437, -398, -372, -360, -352, -345, -340, -328, -316, -321, -328, -321, -306, -297, -294, -292, -302, -319, -323, -326, -333, -343, -348, -345, -348, -355, -355, -350, -355, -355, -350, -343, -331, -314, -306, -304, -299, -287, -265, -232, -205, -200, -203, -203, -195, -190, -190, -198, -203, -207])
('ECG', 1751734576143189040, [-210, -200, -190, -190, -193, -190, -195, -215, -232, -234, -229, -227, -239, -297, -362, -178, 432, 1119, 1119, 12, -937, -546, -84, -297, -340, -205, -246, -277, -217, -210, -219, -195, -176, -171, -164, -149, -137, -125, -108, -87, -74, -77, -84, -87, -94, -111, -128, -152, -178, -205, -239, -280, -314, -338, -350, -360, -369, -377, -374, -360, -350, -355, -348, -340, -343, -340, -335, -338, -348, -345, -333, -333, -340])
('ECG', 1751734576704689720, [-335, -326, -328, -335, -338, -335, -333, -335, -331, -316, -311, -309, -311, -321, -323, -311, -306, -314, -314, -309, -309, -309, -306, -309, -311, -309, -311, -316, -311, -309, -311, -314, -314, -311, -311, -311, -292, -273, -268, -263, -251, -256, -280, -297, -292, -280, -277, -275, -309, -386, -304, 210, 942, 1222, 403, -766, -715, -130, -244, -408, -263, -253, -319, -263, -227, -244, -234, -210, -207, -195, -164, -149, -147])
('ECG', 1751734577266190404, [-135, -120, -113, -106, -101, -99, -106, -128, -149, -169, -190, -210, -241, -285, -321, -335, -343, -357, -372, -377, -377, -379, -374, -372, -369, -364, -360, -360, -357, -355, -352, -355, -357, -350, -348, -357, -367, -364, -355, -345, -340, -343, -343, -343, -340, -331, -326, -328, -328, -326, -328, -328, -321, -316, -314, -311, -306, -299, -297, -299, -299, -290, -287, -290, -282, -273, -273, -268, -261, -256, -256, -263, -263])
('ECG', 1751734577827691086, [-251, -241, -239, -227, -215, -227, -244, -256, -268, -268, -265, -268, -299, -362, -251, 280, 993, 1230, 389, -722, -621, -79, -232, -389, -253, -258, -321, -270, -239, -248, -222, -193, -190, -178, -154, -142, -140, -137, -132, -118, -111, -113, -113, -120, -140, -154, -157, -181, -227, -265, -297, -326, -345, -360, -369, -374, -372, -369, -372, -369, -364, -357, -345, -331, -319, -321, -333, -333, -321, -309, -306, -309, -309])
('ECG', 1751734578389176508, [-311, -306, -299, -302, -302, -297, -299, -302, -299, -294, -297, -290, -277, -282, -292, -282, -275, -285, -287, -275, -273, -282, -282, -287, -302, -297, -282, -275, -263, -253, -258, -258, -256, -256, -251, -244, -241, -244, -253, -258, -256, -253, -248, -234, -234, -239, -227, -227, -248, -258, -251, -251, -263, -268, -294, -360, -229, 326, 1015, 1162, 241, -790, -570, -72, -265, -372, -219, -239, -290, -234, -219, -241, -222])
('ECG', 1751734578950682276, [-200, -198, -178, -159, -157, -145, -128, -118, -111, -108, -111, -116, -106, -108, -132, -152, -174, -205, -234, -265, -306, -340, -357, -369, -377, -372, -374, -374, -360, -352, -357, -360, -352, -348, -340, -331, -321, -311, -316, -326, -331, -331, -328, -326, -326, -326, -331, -333, -321, -314, -314, -314, -316, -316, -306, -302, -304, -306, -302, -294, -297, -306, -311, -314, -345, -408, -430, -418, -427, -432, -420, -430, -439])
('ECG', 1751734579512162614, [-422, -398, -386, -377, -367, -355, -360, -374, -389, -384, -367, -357, -362, -408, -473, -328, 246, 954, 1041, 0, -1027, -722, -210, -379, -430, -282, -321, -364, -304, -280, -287, -275, -263, -248, -227, -210, -203, -188, -164, -149, -137, -125, -128, -137, -142, -154, -169, -190, -217, -248, -285, -321, -340, -350, -362, -374, -384, -386, -377, -369, -364, -364, -362, -355, -343, -335, -338, -343, -343, -343, -343, -343, -340])
('ECG', 1751734580073663296, [-343, -348, -348, -340, -333, -333, -331, -321, -321, -333, -335, -338, -345, -340, -333, -335, -338, -340, -335, -333, -335, -335, -333, -326, -319, -314, -321, -326, -309, -297, -304, -314, -306, -292, -282, -277, -261, -251, -263, -280, -282, -287, -287, -285, -290, -331, -401, -258, 333, 1056, 1169, 159, -894, -606, -77, -282, -381, -219, -241, -299, -246, -232, -248, -229, -212, -215, -203, -178, -166, -157, -147, -142, -130])
('ECG', 1751734580635163978, [-118, -116, -123, -130, -132, -145, -171, -195, -219, -263, -306, -335, -355, -369, -379, -384, -381, -379, -384, -377, -360, -348, -338, -323, -314, -309, -311, -311, -311, -316, -319, -314, -299, -299, -302, -290, -287, -302, -309, -306, -304, -306, -306, -304, -306, -311, -309, -302, -297, -297, -294, -285, -282, -287, -287, -277, -273, -277, -275, -270, -280, -290, -294, -294, -292, -292, -297, -290, -270, -251, -239, -224, -224])
('ECG', 1751734581196664660, [-246, -263, -265, -265, -270, -273, -282, -335, -360, -62, 613, 1189, 911, -256, -845, -331, -111, -377, -340, -232, -302, -309, -265, -270, -251, -215, -217, -217, -195, -176, -149, -125, -113, -106, -99, -99, -99, -99, -101, -113, -125, -157, -203, -244, -268, -302, -335, -352, -362, -377, -381, -377, -372, -367, -364, -362, -343, -323, -321, -316, -309, -314, -314, -304, -302, -299, -292, -292, -294, -292, -292, -294, -280])
('ECG', 1751734581758165342, [-275, -311, -328, -309, -302, -304, -297, -297, -287, -287, -287, -261, -248, -253, -253, -273, -292, -290, -311, -335, -311, -287, -292, -290, -275, -282, -299, -306, -309, -294, -268, -261, -280, -275, -261, -280, -309, -306, -282, -268, -292, -335, -374, -362, -89, 536, 1121, 925, -224, -947, -468, -166, -422, -379, -251, -326, -323, -287, -328, -319, -244, -246, -304, -248, -181, -210, -229, -219, -205, -183, -171, -152, -149])
('ECG', 1751734582319655850, [-205, -234, -207, -217, -265, -299, -333, -355, -369, -401, -408, -396, -413, -435, -427, -420, -413, -391, -381, -377, -362, -379, -418, -403, -360, -355, -374, -374, -362, -362, -369, -360, -355, -364, -362, -357, -369, -364, -350, -350, -348, -348, -352, -345, -335, -333, -323, -321, -345, -343, -309, -319, -357, -319, -270, -277, -282, -277, -294, -311, -331, -348, -335, -321, -338, -350, -393, -403, -48, 737, 1339, 829, -572])
('ECG', 1751734582881136188, [-1051, -422, -248, -418, -290, -229, -302, -273, -232, -241, -234, -222, -219, -195, -152, -135, -135, -120, -99, -79, -74, -87, -87, -87, -103, -123, -145, -171, -203, -241, -287, -335, -372, -386, -396, -413, -413, -403, -408, -413, -401, -391, -396, -389, -374, -362, -357, -364, -348, -304, -319, -362, -355, -328, -338, -360, -355, -328, -323, -335, -343, -345, -343, -321, -297, -321, -340, -304, -282, -299, -294, -302, -316])
('ECG', 1751734583442636870, [-282, -251, -270, -275, -258, -277, -309, -306, -297, -302, -304, -311, -367, -396, -89, 652, 1293, 899, -468, -1056, -464, -239, -430, -328, -239, -302, -290, -251, -251, -236, -227, -222, -198, -176, -164, -145, -137, -137, -123, -106, -103, -111, -118, -120, -132, -159, -181, -207, -258, -306, -340, -372, -389, -393, -396, -393, -396, -401, -393, -393, -401, -389, -364, -352, -350, -340, -328, -331, -340, -333, -323, -331, -331])
('ECG', 1751734584004137552, [-326, -343, -348, -328, -326, -335, -333, -323, -321, -319, -309, -309, -326, -328, -306, -292, -290, -282, -273, -282, -297, -292, -273, -248, -244, -241, -234, -248, -273, -285, -285, -285, -285, -285, -321, -389, -261, 304, 1073, 1276, 248, -937, -739, -176, -321, -393, -224, -239, -299, -251, -215, -217, -198, -181, -178, -166, -145, -132, -128, -108, -77, -62, -65, -62, -70, -99, -118, -128, -147, -174, -210, -253, -287])
('ECG', 1751734584565638234, [-309, -335, -369, -389, -393, -393, -398, -396, -381, -374, -369, -357, -352, -355, -355, -345, -331, -328, -338, -333, -326, -340, -345, -323, -326, -357, -364, -348, -352, -360, -352, -355, -357, -362, -377, -384, -364, -350, -352, -348, -338, -338, -345, -340, -338, -340, -326, -309, -311, -306, -285, -273, -273, -290, -319, -333, -338, -340, -335, -333, -343, -401, -451, -217, 461, 1201, 1160, -62, -1029, -601, -174, -396, -398])
('ECG', 1751734585127138916, [-253, -304, -333, -280, -268, -270, -239, -227, -234, -203, -166, -166, -152, -116, -106, -118, -108, -99, -116, -125, -130, -149, -166, -190, -244, -297, -326, -360, -389, -398, -406, -413, -420, -415, -401, -403, -420, -408, -384, -381, -374, -364, -377, -369, -333, -323, -333, -326, -323, -335, -345, -345, -345, -345, -335, -338, -338, -326, -331, -352, -355, -343, -343, -348, -343, -331, -319, -328, -350, -335, -314, -328, -338])
('ECG', 1751734585688639598, [-331, -338, -345, -331, -309, -294, -297, -302, -302, -311, -297, -270, -273, -270, -265, -292, -309, -299, -306, -304, -285, -297, -357, -406, -207, 439, 1210, 1288, 140, -932, -584, -116, -379, -435, -239, -270, -319, -241, -219, -241, -215, -181, -178, -164, -135, -120, -125, -135, -125, -111, -106, -106, -94, -84, -103, -125, -142, -171, -205, -251, -299, -326, -340, -352, -362, -377, -381, -369, -364, -374, -369, -357, -369])
('ECG', 1751734586250140280, [-374, -355, -340, -343, -343, -335, -323, -316, -328, -328, -314, -319, -333, -340, -338, -326, -326, -338, -333, -333, -343, -331, -316, -323, -331, -326, -314, -323, -328, -316, -321, -335, -333, -326, -323, -319, -311, -309, -304, -287, -282, -294, -297, -297, -299, -294, -290, -294, -297, -290, -287, -287, -282, -285, -287, -275, -258, -253, -248, -236, -239, -261, -277, -285, -297, -299, -297, -304, -348, -422, -316, 246, 1094])
('ECG', 1751734586811640962, [1520, 633, -780, -795, -132, -261, -464, -302, -277, -350, -299, -261, -280, -261, -219, -219, -224, -203, -188, -171, -145, -135, -135, -123, -118, -130, -147, -166, -195, -215, -227, -253, -282, -302, -328, -357, -372, -386, -406, -415, -415, -413, -406, -403, -401, -393, -384, -384, -379, -362, -350, -340, -335, -345, -352, -352, -352, -345, -343, -343, -338, -338, -338, -331, -326, -328, -331, -328, -319, -321, -328, -319, -314])
('ECG', 1751734587373141644, [-321, -311, -306, -319, -311, -294, -297, -292, -277, -275, -270, -258, -256, -258, -251, -236, -232, -244, -248, -246, -258, -273, -263, -261, -282, -285, -273, -280, -268, -239, -234, -239, -246, -256, -234, -205, -212, -273, -333, -137, 514, 1322, 1471, 314, -862, -536, -24, -294, -374, -200, -251, -311, -246, -219, -229, -210, -181, -154, -130, -116, -94, -79, -65, -43, -36, -36, -29, -36, -55, -65, -72, -89, -108])
('ECG', 1751734587934642326, [-132, -169, -212, -253, -280, -297, -319, -338, -338, -326, -302, -287, -309, -321, -297, -282, -285, -280, -282, -282, -263, -248, -253, -253, -251, -263, -265, -251, -248, -263, -282, -297, -287, -280, -290, -282, -270, -287, -287, -263, -265, -275, -263, -251, -261, -273, -268, -265, -270, -256, -256, -270, -268, -265, -273, -270, -263, -261, -258, -261, -273, -270, -258, -256, -261, -268, -273, -265, -251, -244, -244, -234, -219])
('ECG', 1751734588496127748, [-227, -248, -253, -251, -268, -280, -265, -275, -333, -348, -55, 650, 1360, 1196, -91, -887, -360, -79, -369, -306, -174, -290, -319, -234, -234, -251, -217, -203, -207, -181, -147, -132, -118, -103, -87, -62, -53, -53, -70, -82, -72, -74, -111, -140, -164, -210, -263, -290, -304, -323, -338, -338, -343, -352, -345, -326, -331, -338, -331, -328, -338, -326, -302, -299, -304, -304, -306, -299, -287, -290, -297, -302, -304])
('ECG', 1751734589057633516, [-309, -309, -304, -297, -302, -309, -306, -299, -304, -304, -292, -285, -287, -294, -306, -302, -290, -285, -277, -270, -285, -292, -282, -275, -275, -280, -285, -287, -287, -285, -285, -282, -273, -265, -270, -275, -275, -273, -256, -244, -244, -261, -282, -277, -246, -234, -258, -277, -282, -285, -285, -277, -290, -350, -381, -94, 623, 1322, 1133, -164, -959, -422, -116, -401, -384, -273, -350, -355, -294, -304, -302, -268, -263])
('ECG', 1751734589619113854, [-258, -229, -198, -181, -166, -137, -118, -120, -111, -94, -91, -101, -120, -147, -169, -193, -227, -265, -309, -343, -352, -364, -391, -398, -391, -396, -401, -408, -415, -389, -369, -389, -396, -379, -396, -418, -406, -374, -362, -367, -362, -357, -348, -340, -335, -335, -350, -374, -374, -355, -352, -369, -372, -348, -343, -350, -333, -321, -338, -343, -328, -326, -331, -328, -309, -292, -304, -306, -275, -282, -304, -294, -290])
('ECG', 1751734590180614536, [-302, -297, -285, -282, -275, -275, -270, -251, -234, -227, -234, -244, -232, -217, -229, -232, -239, -261, -251, -236, -261, -316, -377, -297, 212, 1051, 1508, 686, -727, -816, -140, -203, -396, -241, -227, -299, -246, -205, -217, -205, -188, -176, -169, -159, -132, -101, -79, -70, -65, -50, -38, -36, -36, -43, -65, -84, -103, -142, -188, -222, -258, -287, -304, -321, -326, -328, -340, -352, -352, -343, -331, -323, -321])
('ECG', 1751734590742115218, [-314, -309, -311, -309, -311, -314, -302, -290, -294, -297, -285, -287, -309, -321, -319, -314, -306, -297, -294, -299, -302, -302, -306, -319, -314, -297, -290, -302, -299, -287, -282, -290, -292, -285, -280, -275, -263, -273, -294, -280, -263, -285, -294, -268, -263, -277, -270, -246, -246, -273, -280, -258, -246, -246, -246, -248, -239, -227, -244, -258, -268, -287, -282, -261, -261, -299, -374, -355, 53, 819, 1375, 884, -456])
('ECG', 1751734591303615900, [-889, -256, -145, -415, -311, -210, -299, -304, -246, -244, -232, -190, -174, -186, -190, -171, -140, -116, -111, -108, -91, -65, -50, -48, -58, -82, -103, -123, -161, -207, -246, -277, -316, -345, -360, -369, -367, -364, -369, -377, -384, -389, -386, -374, -364, -372, -369, -357, -352, -350, -345, -352, -357, -355, -367, -379, -389, -391, -386, -389, -406, -406, -391, -384, -386, -381, -372, -377, -384, -379, -374, -379, -384])
('ECG', 1751734591865116582, [-369, -362, -367, -352, -340, -348, -348, -323, -302, -304, -309, -299, -299, -306, -306, -304, -290, -258, -239, -236, -222, -210, -222, -224, -210, -198, -195, -200, -195, -193, -212, -229, -217, -207, -224, -219, -176, -183, -232, -236, -222, -229, -248, -263, -270, -311, -316, 21, 749, 1343, 974, -306, -850, -275, -103, -364, -282, -183, -275, -277, -229, -246, -251, -224, -224, -227, -193, -161, -152, -149, -140, -118, -94])
('ECG', 1751734592426617264, [-87, -79, -82, -106, -118, -118, -137, -171, -198, -236, -287, -323, -338, -352, -377, -386, -381, -381, -374, -369, -372, -360, -338, -331, -333, -335, -338, -338, -338, -333, -328, -328, -331, -338, -343, -343, -350, -357, -350, -352, -357, -350, -328, -323, -326, -316, -321, -335, -326, -316, -331, -338, -321, -297, -297, -309, -314, -316, -316, -316, -306, -290, -282, -273, -256, -241, -241, -246, -251, -251, -236, -227, -236])
('ECG', 1751734592988117946, [-239, -229, -234, -236, -227, -222, -229, -229, -219, -210, -215, -229, -215, -195, -207, -224, -244, -268, -270, -261, -275, -333, -386, -205, 410, 1172, 1322, 265, -860, -592, -62, -270, -377, -224, -232, -263, -229, -232, -227, -195, -183, -166, -142, -130, -103, -84, -91, -70, -45, -62, -58, -29, -31, -50, -62, -72, -94, -137, -186, -224, -253, -265, -277, -309, -333, -340, -343, -340, -328, -311, -297, -297, -302])
('ECG', 1751734593549618626, [-297, -282, -297, -328, -316, -285, -275, -280, -302, -323, -297, -275, -306, -321, -297, -302, -323, -321, -309, -304, -302, -302, -311, -316, -306, -306, -319, -316, -311, -302, -290, -287, -294, -292, -290, -292, -287, -285, -290, -292, -297, -292, -292, -294, -280, -280, -290, -297, -306, -304, -285, -253, -219, -246, -280, -215, -166, -239, -268, -229, -253, -273, -236, -261, -338, -372, -205, 360, 1097, 1278, 261, -906, -676])
('ECG', 1751734594111093878, [-113, -306, -410, -229, -244, -321, -277, -246, -256, -239, -217, -215, -198, -169, -157, -140, -116, -101, -87, -65, -60, -72, -72, -72, -94, -140, -178, -186, -203, -258, -302, -316, -331, -348, -345, -338, -340, -338, -333, -331, -314, -297, -297, -285, -263, -268, -277, -268, -277, -292, -277, -268, -277, -282, -285, -282, -275, -268, -270, -273, -277, -294, -299, -287, -285, -285, -277, -273, -277, -268, -261, -263, -256])
('ECG', 1751734594672599646, [-253, -263, -273, -280, -287, -280, -268, -263, -270, -273, -261, -248, -241, -244, -244, -236, -232, -229, -229, -234, -229, -219, -210, -210, -222, -222, -203, -207, -234, -251, -251, -241, -227, -224, -261, -335, -273, 176, 899, 1322, 710, -509, -696, -94, -101, -326, -212, -169, -244, -203, -154, -178, -176, -145, -137, -132, -116, -99, -84, -77, -74, -60, -36, -26, -31, -36, -36, -43, -62, -89, -128, -171, -215])
('ECG', 1751734595234105414, [-251, -277, -299, -319, -331, -348, -355, -350, -345, -335, -323, -316, -302, -292, -304, -306, -292, -294, -299, -299, -299, -302, -304, -311, -319, -321, -323, -331, -333, -333, -326, -319, -328, -338, -343, -343, -331, -328, -333, -338, -326, -311, -306, -304, -306, -311, -304, -290, -290, -294, -290, -285, -282, -270, -277, -292, -280, -273, -287, -285, -277, -277, -277, -275, -275, -275, -273, -263, -263, -282, -275, -248, -251])
('ECG', 1751734595795611182, [-273, -277, -275, -277, -275, -280, -309, -362, -319, 58, 732, 1201, 715, -471, -778, -205, -154, -396, -290, -217, -299, -285, -229, -241, -241, -215, -200, -186, -169, -161, -142, -120, -113, -99, -77, -70, -65, -62, -70, -82, -101, -130, -157, -181, -219, -261, -290, -323, -348, -348, -340, -343, -352, -360, -355, -350, -352, -345, -333, -335, -335, -323, -316, -319, -319, -309, -309, -316, -314, -311, -319, -326, -331])
('ECG', 1751734596357116950, [-331, -326, -326, -333, -328, -321, -326, -321, -304, -304, -316, -314, -306, -297, -285, -280, -287, -294, -290, -282, -270, -261, -261, -261, -258, -256, -248, -246, -256, -258, -244, -241, -241, -232, -239, -246, -227, -227, -253, -261, -270, -290, -287, -277, -282, -326, -374, -181, 420, 1082, 1082, 12, -906, -531, -96, -321, -369, -224, -258, -294, -246, -236, -241, -219, -205, -190, -169, -147, -132, -116, -94, -77, -70])
('ECG', 1751734596918622718, [-60, -55, -62, -74, -84, -91, -113, -140, -171, -217, -263, -294, -311, -326, -338, -355, -372, -374, -369, -369, -360, -340, -328, -335, -345, -350, -345, -343, -343, -340, -340, -343, -343, -343, -345, -345, -338, -338, -348, -340, -326, -326, -331, -321, -314, -321, -323, -323, -328, -331, -333, -333, -323, -321, -328, -326, -314, -309, -311, -311, -304, -299, -306, -306, -302, -299, -290, -275, -273, -277, -270, -263, -270])
('ECG', 1751734597480123402, [-268, -241, -236, -258, -268, -275, -280, -265, -256, -275, -331, -348, -58, 616, 1215, 957, -251, -889, -357, -111, -374, -326, -205, -285, -299, -246, -248, -246, -217, -217, -215, -195, -176, -152, -123, -108, -94, -72, -55, -41, -36, -38, -48, -67, -91, -120, -161, -207, -246, -273, -299, -323, -338, -343, -343, -340, -343, -352, -343, -323, -331, -338, -326, -314, -311, -316, -316, -314, -311, -316, -321, -319, -311])
('ECG', 1751734598041624084, [-319, -323, -321, -319, -323, -326, -326, -333, -340, -335, -331, -338, -333, -328, -323, -316, -316, -314, -304, -302, -302, -294, -287, -297, -297, -287, -287, -287, -285, -280, -282, -282, -270, -261, -268, -273, -265, -253, -246, -251, -251, -236, -224, -210, -195, -219, -253, -261, -261, -261, -251, -258, -285, -340, -282, 159, 862, 1215, 546, -611, -710, -149, -210, -415, -285, -232, -297, -277, -244, -256, -258, -263, -292])
('ECG', 1751734598603124766, [-299, -256, -215, -236, -270, -239, -195, -200, -193, -147, -111, -96, -91, -74, -58, -82, -137, -181, -212, -248, -287, -309, -316, -331, -343, -335, -328, -328, -323, -316, -309, -311, -316, -304, -294, -306, -316, -309, -309, -304, -290, -290, -299, -299, -290, -287, -294, -294, -287, -290, -292, -285, -273, -275, -292, -287, -270, -261, -261, -258, -253, -253, -256, -256, -256, -261, -265, -270, -270, -263, -256, -253, -261])
('ECG', 1751734599164625448, [-268, -265, -268, -277, -268, -244, -234, -232, -219, -219, -246, -263, -261, -263, -265, -258, -268, -311, -343, -123, 495, 1138, 1024, -116, -925, -478, -113, -345, -350, -219, -270, -285, -234, -248, -248, -195, -171, -174, -154, -140, -130, -108, -87, -77, -67, -55, -45, -45, -58, -70, -79, -101, -132, -169, -207, -246, -277, -297, -323, -343, -350, -352, -357, -357, -348, -331, -321, -323, -319, -302, -299, -306, -304])
('ECG', 1751734599726126130, [-302, -306, -309, -304, -304, -306, -297, -292, -304, -302, -287, -285, -294, -302, -299, -297, -304, -304, -287, -285, -292, -290, -277, -275, -294, -304, -294, -292, -294, -282, -280, -285, -290, -282, -268, -263, -261, -244, -222, -219, -217, -210, -210, -224, -236, -234, -229, -232, -239, -268, -314, -149, 427, 1106, 1150, 116, -824, -471, -12, -236, -297, -152, -203, -253, -200, -188, -203, -183, -174, -181, -166, -128, -94])
('ECG', 1751734600287626812, [-84, -72, -50, -43, -33, -24, -26, -16, -9, -31, -65, -91, -128, -169, -217, -258, -280, -294, -321, -335, -338, -335, -338, -331, -319, -314, -316, -321, -314, -304, -302, -292, -282, -292, -299, -282, -280, -292, -294, -290, -297, -306, -299, -294, -302, -309, -304, -297, -297, -297, -290, -290, -306, -306, -290, -287, -290, -290, -290, -282, -280, -285, -292, -292, -285, -280, -282, -292, -292, -280, -277, -287, -287])
('ECG', 1751734600849127494, [-277, -268, -251, -236, -234, -246, -263, -277, -273, -275, -280, -280, -309, -374, -251, 280, 959, 1140, 285, -778, -638, -116, -263, -386, -239, -248, -314, -261, -224, -229, -212, -203, -205, -188, -169, -161, -152, -128, -106, -94, -74, -58, -70, -82, -82, -94, -123, -154, -178, -205, -246, -282, -314, -340, -352, -343, -326, -319, -304, -287, -282, -292, -292, -280, -273, -270, -273, -275, -268, -265, -282, -297, -297])
('ECG', 1751734601410628176, [-294, -290, -277, -277, -290, -285, -270, -270, -280, -275, -268, -268, -270, -265, -258, -251, -248, -248, -248, -248, -248, -244, -236, -232, -232, -232, -229, -232, -241, -253, -258, -244, -224, -222, -224, -212, -217, -241, -251, -253, -256, -258, -268, -294, -350, -352, -19, 674, 1213, 795, -454, -918, -323, -157, -391, -306, -227, -299, -287, -236, -239, -244, -229, -212, -193, -176, -166, -149, -125, -96, -74, -70, -67])
('ECG', 1751734601972128858, [-60, -55, -65, -82, -106, -142, -178, -217, -263, -302, -323, -345, -377, -379, -357, -357, -362, -340, -326, -323, -316, -306, -302, -294, -282, -280, -292, -297, -290, -285, -282, -287, -299, -297, -277, -277, -292, -287, -280, -290, -294, -285, -282, -292, -294, -294, -292, -282, -275, -280, -290, -285, -270, -275, -294, -285, -265, -265, -265, -263, -270, -275, -268, -282, -287, -248, -222, -227, -224, -224, -244, -263, -270])
('ECG', 1751734602533629540, [-270, -263, -258, -275, -343, -319, 87, 809, 1264, 705, -538, -826, -207, -135, -367, -270, -210, -290, -253, -198, -219, -219, -188, -174, -166, -135, -103, -99, -96, -79, -70, -60, -53, -65, -77, -79, -84, -94, -118, -159, -190, -227, -268, -294, -304, -326, -348, -350, -338, -331, -333, -326, -314, -314, -316, -304, -292, -297, -304, -304, -309, -316, -309, -299, -311, -326, -321, -316, -323, -331, -311, -294, -297])
('ECG', 1751734603095130222, [-294, -282, -285, -297, -292, -280, -287, -309, -314, -294, -277, -277, -287, -290, -285, -287, -294, -285, -275, -280, -287, -285, -280, -282, -280, -268, -263, -261, -244, -222, -215, -229, -253, -265, -268, -263, -261, -275, -333, -406, -277, 261, 971, 1150, 203, -887, -681, -142, -285, -367, -224, -248, -292, -241, -232, -239, -217, -207, -193, -169, -152, -147, -142, -135, -118, -94, -77, -82, -91, -82, -74, -94, -118])
('ECG', 1751734603656630904, [-140, -174, -219, -251, -285, -309, -319, -333, -352, -360, -352, -350, -350, -350, -340, -328, -323, -321, -309, -302, -311, -321, -314, -304, -306, -309, -314, -316, -311, -309, -321, -328, -316, -304, -304, -304, -306, -311, -309, -302, -311, -321, -319, -311, -311, -316, -316, -309, -304, -304, -297, -282, -282, -285, -277, -277, -285, -273, -253, -241, -232, -224, -229, -246, -261, -280, -290, -285, -277, -275, -294, -355, -348])
('ECG', 1751734604218131586, [-2, 688, 1222, 807, -447, -896, -287, -128, -377, -292, -207, -287, -277, -222, -229, -219, -183, -171, -169, -149, -130, -123, -111, -89, -67, -53, -50, -53, -58, -70, -87, -106, -132, -164, -198, -236, -280, -316, -340, -355, -369, -377, -374, -369, -362, -355, -345, -338, -335, -326, -309, -304, -311, -319, -321, -316, -314, -316, -316, -314, -314, -316, -319, -314, -311, -311, -311, -314, -314, -311, -314, -311, -306])
('ECG', 1751734604779632268, [-299, -297, -297, -294, -297, -299, -292, -285, -282, -270, -256, -246, -244, -251, -256, -248, -246, -253, -253, -256, -253, -248, -251, -248, -248, -256, -261, -246, -222, -207, -210, -210, -215, -236, -246, -229, -217, -232, -248, -277, -333, -229, 292, 1017, 1261, 401, -727, -604, -38, -188, -333, -169, -174, -246, -183, -140, -137, -106, -77, -62, -41, -21, -7, 4, 7, 9, 19, 29, 45, 50, 33, 21, 19])
('ECG', 1751734605341132950, [-4, -50, -82, -106, -145, -183, -215, -244, -258, -263, -265, -275, -277, -270, -265, -258, -251, -248, -246, -236, -232, -236, -241, -234, -236, -246, -246, -246, -248, -244, -236, -239, -251, -256, -253, -258, -261, -253, -253, -253, -248, -244, -241, -236, -244, -256, -251, -248, -251, -244, -239, -241, -239, -234, -232, -239, -244, -239, -234, -232, -229, -222, -224, -234, -234, -224, -229, -234, -219, -203, -203, -200, -190])
('ECG', 1751734605902633632, [-198, -222, -246, -251, -246, -241, -239, -268, -343, -270, 205, 923, 1288, 575, -681, -795, -166, -178, -357, -224, -200, -273, -227, -186, -207, -205, -178, -174, -169, -145, -125, -116, -103, -89, -70, -53, -58, -79, -94, -111, -132, -147, -161, -198, -251, -297, -323, -331, -335, -348, -355, -343, -333, -345, -355, -335, -319, -326, -321, -302, -299, -309, -311, -306, -299, -297, -287, -280, -297, -314, -297, -280, -287])
('ECG', 1751734606464134314, [-285, -270, -270, -277, -270, -261, -261, -261, -253, -253, -256, -244, -229, -239, -248, -244, -239, -246, -248, -244, -244, -251, -253, -256, -261, -263, -265, -265, -261, -263, -268, -263, -253, -256, -263, -265, -263, -261, -268, -275, -258, -236, -232, -229, -222, -227, -256, -268, -263, -263, -261, -263, -292, -355, -360, -33, 655, 1220, 858, -377, -858, -256, -99, -377, -294, -193, -277, -273, -212, -224, -229, -193, -178])
('ECG', 1751734607025634996, [-169, -137, -120, -118, -101, -79, -72, -67, -53, -41, -53, -79, -94, -103, -123, -157, -198, -241, -287, -319, -331, -345, -355, -355, -352, -345, -335, -328, -319, -311, -309, -302, -299, -292, -280, -275, -273, -268, -270, -270, -263, -258, -256, -253, -253, -253, -253, -258, -268, -270, -265, -265, -270, -273, -282, -285, -277, -277, -280, -273, -270, -268, -268, -273, -270, -258, -246, -241, -239, -239, -241, -234, -229])
('ECG', 1751734607587135678, [-236, -239, -229, -224, -229, -229, -219, -219, -229, -229, -222, -232, -241, -222, -212, -215, -207, -190, -200, -239, -256, -244, -236, -246, -246, -253, -314, -314, 31, 720, 1249, 865, -335, -780, -212, -87, -360, -285, -188, -258, -253, -203, -203, -198, -178, -164, -145, -125, -113, -99, -74, -53, -48, -45, -31, -26, -31, -33, -41, -62, -82, -108, -152, -195, -227, -258, -292, -309, -319, -326, -328, -319, -311])
('ECG', 1751734608148636360, [-309, -302, -292, -290, -290, -287, -285, -277, -273, -275, -282, -277, -263, -263, -270, -275, -280, -273, -263, -263, -263, -263, -265, -258, -258, -273, -268, -253, -263, -275, -268, -261, -265, -268, -258, -253, -263, -268, -261, -258, -253, -253, -256, -251, -248, -251, -248, -239, -234, -241, -253, -256, -258, -261, -246, -227, -229, -239, -222, -210, -227, -248, -251, -246, -239, -246, -258, -277, -338, -275, 210, 947, 1254])
('ECG', 1751734608710137042, [447, -749, -734, -137, -205, -352, -212, -195, -256, -215, -181, -188, -169, -147, -137, -116, -101, -103, -91, -67, -55, -45, -33, -24, -24, -31, -38, -55, -79, -111, -145, -171, -200, -236, -277, -306, -316, -333, -343, -331, -319, -333, -343, -333, -321, -314, -309, -304, -306, -309, -309, -302, -302, -311, -309, -299, -294, -292, -297, -294, -282, -282, -297, -299, -294, -292, -299, -302, -287, -275, -273, -273, -273])
('ECG', 1751734609271658068, [-275, -273, -268, -268, -270, -261, -251, -241, -236, -239, -236, -236, -241, -236, -232, -232, -232, -232, -229, -210, -193, -193, -186, -178, -193, -217, -222, -222, -224, -219, -222, -258, -319, -193, 350, 1046, 1215, 309, -742, -543, -38, -229, -343, -186, -222, -302, -246, -215, -236, -217, -188, -183, -169, -152, -135, -111, -94, -77, -58, -45, -33, -26, -24, -24, -33, -53, -84, -125, -169, -215, -256, -282, -304])
('ECG', 1751734609833138406, [-316, -319, -333, -343, -333, -321, -319, -319, -314, -309, -299, -290, -287, -294, -290, -280, -287, -294, -290, -290, -294, -292, -287, -287, -290, -297, -294, -287, -290, -297, -294, -294, -302, -294, -290, -292, -292, -287, -290, -290, -290, -285, -273, -268, -275, -285, -280, -263, -265, -280, -277, -270, -273, -268, -265, -268, -256, -236, -234, -236, -229, -227, -246, -270, -277, -265, -263, -268, -294, -350, -224, 306, 983])
('ECG', 1751734610394639084, [1140, 251, -790, -626, -106, -253, -372, -232, -234, -285, -244, -232, -244, -224, -212, -212, -190, -157, -152, -152, -128, -89, -62, -50, -45, -43, -43, -45, -55, -74, -96, -130, -186, -232, -258, -282, -304, -321, -335, -340, -345, -343, -331, -328, -345, -352, -335, -326, -335, -335, -331, -333, -328, -316, -314, -326, -331, -321, -321, -309, -290, -287, -297, -297, -294, -294, -297, -302, -314, -323, -316, -309, -314])
('ECG', 1751734610956139770, [-314, -309, -309, -314, -302, -285, -275, -282, -292, -292, -297, -294, -275, -261, -265, -261, -244, -246, -268, -277, -277, -275, -280, -282, -292, -352, -348, 45, 787, 1259, 667, -609, -882, -253, -176, -367, -234, -169, -239, -207, -159, -164, -152, -120, -111, -113, -99, -77, -65, -58, -43, -21, -7, -2, 2, 7, 2, -12, -48, -84, -120, -169, -212, -239, -263, -292, -311, -314, -314, -319, -314, -304, -302])
('ECG', 1751734611517640452, [-297, -292, -292, -282, -270, -265, -268, -263, -256, -261, -270, -265, -263, -263, -256, -251, -258, -261, -256, -248, -241, -241, -244, -229, -219, -229, -234, -222, -217, -222, -227, -219, -212, -212, -217, -227, -227, -207, -190, -190, -195, -190, -200, -222, -234, -227, -219, -227, -239, -275, -316, -125, 468, 1123, 1109, 48, -860, -466, -2, -222, -275, -123, -161, -205, -149, -137, -152, -120, -94, -96, -91, -65, -45])
('ECG', 1751734612079141134, [-33, -21, -9, 2, 9, 14, 16, 16, 7, -24, -60, -94, -135, -176, -212, -251, -280, -294, -299, -311, -316, -306, -299, -297, -285, -277, -282, -282, -280, -285, -285, -277, -273, -275, -287, -287, -275, -275, -275, -261, -256, -263, -258, -248, -246, -246, -241, -234, -232, -234, -229, -224, -232, -244, -234, -219, -217, -229, -232, -227, -227, -227, -227, -236, -229, -198, -188, -193, -186, -190, -222, -248, -248])
('ECG', 1751734612640641816, [-227, -217, -229, -256, -304, -227, 246, 971, 1273, 468, -710, -696, -101, -186, -360, -215, -193, -263, -219, -186, -205, -190, -174, -169, -149, -125, -120, -116, -89, -62, -55, -45, -26, -21, -33, -43, -53, -77, -116, -152, -188, -222, -251, -270, -299, -335, -348, -352, -367, -364, -355, -355, -343, -328, -331, -331, -323, -323, -326, -321, -311, -306, -309, -309, -306, -306, -302, -297, -304, -299, -285, -285, -290])
('ECG', 1751734613202142498, [-292, -292, -277, -268, -275, -277, -268, -256, -246, -244, -261, -261, -248, -256, -265, -258, -246, -234, -217, -212, -212, -215, -227, -246, -256, -251, -253, -263, -263, -285, -345, -200, 398, 1131, 1227, 164, -903, -604, -84, -277, -343, -193, -234, -277, -215, -210, -234, -215, -190, -178, -154, -137, -142, -132, -108, -101, -89, -74, -79, -87, -87, -94, -113, -132, -154, -188, -232, -265, -294, -326, -355, -362, -362])
('ECG', 1751734613763643178, [-367, -362, -357, -362, -364, -362, -362, -355, -338, -331, -331, -331, -338, -345, -345, -345, -345, -345, -345, -348, -348, -343, -335, -328, -331, -328, -331, -331, -311, -302, -321, -331, -326, -326, -331, -326, -319, -314, -321, -331, -331, -323, -331, -352, -345, -311, -297, -304, -302, -299, -316, -355, -389, -391, -391, -398, -384, -352, -384, -372, 14, 734, 1150, 476, -858, -1123, -505, -495, -761, -691, -700, -826, -829])
('ECG', 1751734614325143862, [-853, -983, -1097, -1169, -1203, -1148, -1000, -836, -700, -449, -159, -193, -244, 74, 273, 222, 280, 350, 335, 338, 316, 253, 205, 174, 132, 94, 65, 41, 14, 0, 2, 2, -4, -14, -16, -9, -9, -16, -26, -36, -43, -45, -55, -65, -62, -60, -62, -70, -74, -84, -94, -101, -103, -106, -116, -120, -120, -123, -120, -118, -125, -135, -140, -140, -140, -145, -149, -145, -149, -152, -149, -147, -145])
('ECG', 1751734614886644544, [-154, -161, -152, -140, -140, -130, -113, -106, -128, -147, -154, -157, -154, -154, -169, -200, -253, -195, 244, 952, 1310, 611, -560, -635, -65, -130, -326, -190, -161, -234, -198, -159, -176, -171, -154, -147, -130, -116, -118, -101, -72, -60, -50, -36, -26, -24, -26, -38, -58, -74, -89, -116, -166, -212, -239, -273, -309, -316, -311, -323, -338, -326, -302, -299, -304, -297, -294, -299, -292, -285, -294, -294, -282])
('ECG', 1751734615448145226, [-277, -282, -287, -297, -304, -306, -302, -299, -299, -299, -306, -314, -304, -282, -270, -277, -287, -299, -304, -302, -309, -311, -309, -314, -309, -287, -268, -258, -246, -246, -251, -244, -236, -241, -232, -203, -190, -200, -195, -188, -212, -241, -246, -248, -270, -287, -282, -314, -355, -145, 466, 1111, 1056, -36, -887, -461, -58, -297, -319, -176, -239, -277, -224, -246, -263, -205, -178, -190, -181, -207, -285, -309, -282])
('ECG', 1751734616009645908, [-256, -203, -149, -130, -128, -125, -130, -132, -123, -128, -164, -217, -253, -285, -326, -360, -377, -391, -372, -323, -292, -268, -246, -244, -239, -217, -215, -219, -215, -217, -219, -203, -203, -217, -215, -215, -232, -236, -222, -217, -217, -210, -203, -200, -195, -195, -205, -198, -188, -207, -222, -205, -200, -205, -195, -186, -190, -200, -203, -190, -176, -161, -154, -159, -157, -142, -149, -183, -198, -178, -176, -193, -210])
('ECG', 1751734616571146590, [-251, -328, -263, 227, 964, 1244, 393, -785, -705, -99, -198, -348, -193, -190, -261, -200, -154, -164, -147, -132, -130, -106, -84, -79, -67, -50, -36, -33, -48, -48, -36, -50, -87, -118, -140, -164, -207, -251, -275, -311, -360, -386, -422, -461, -432, -379, -369, -362, -340, -345, -362, -367, -350, -321, -299, -290, -280, -273, -280, -304, -302, -258, -215, -217, -244, -244, -222, -207, -203, -200, -193, -186, -188])
('ECG', 1751734617132647272, [-183, -161, -157, -161, -157, -154, -157, -161, -161, -164, -176, -181, -164, -142, -135, -132, -128, -145, -174, -186, -178, -169, -174, -183, -203, -263, -241, 149, 838, 1254, 667, -522, -720, -103, -77, -309, -215, -193, -297, -268, -195, -190, -174, -135, -118, -113, -94, -72, -65, -55, -33, -19, -19, -16, -14, -26, -53, -70, -87, -116, -152, -190, -236, -275, -290, -292, -294, -302, -314, -319, -309, -306, -321])
('ECG', 1751734617694147954, [-333, -319, -304, -299, -290, -285, -297, -297, -290, -290, -290, -277, -268, -265, -258, -253, -263, -263, -261, -270, -270, -265, -285, -311, -309, -285, -246, -217, -215, -207, -203, -212, -212, -188, -169, -164, -161, -154, -166, -190, -195, -195, -198, -193, -198, -227, -282, -222, 229, 957, 1319, 623, -560, -667, -91, -125, -309, -176, -142, -215, -176, -137, -157, -149, -120, -108, -99, -87, -74, -60, -41, -24, -9])
('ECG', 1751734618255648636, [2, 4, 2, 0, -7, -21, -50, -79, -108, -149, -188, -219, -246, -261, -265, -275, -280, -280, -277, -270, -265, -261, -256, -256, -261, -265, -265, -270, -270, -265, -270, -277, -273, -275, -280, -282, -280, -280, -280, -275, -270, -273, -273, -270, -265, -265, -270, -268, -275, -280, -261, -234, -229, -227, -219, -229, -253, -261, -251, -248, -251, -248, -258, -302, -277, 94, 792, 1225, 669, -502, -758, -190, -123])
('ECG', 1751734618817149318, [-314, -210, -159, -229, -205, -161, -171, -166, -140, -118, -108, -103, -84, -60, -55, -55, -33, -16, -16, -16, -21, -33, -50, -67, -82, -116, -166, -210, -239, -268, -297, -309, -314, -331, -328, -314, -311, -314, -304, -297, -290, -287, -294, -294, -285, -285, -297, -297, -290, -292, -297, -294, -299, -309, -306, -297, -290, -280, -277, -282, -285, -277, -277, -285, -297, -292, -273, -258, -246, -232, -227, -239, -256])
('ECG', 1751734619378650000, [-265, -277, -277, -265, -256, -273, -319, -292, 55, 742, 1213, 662, -567, -865, -265, -149, -326, -219, -164, -232, -205, -157, -171, -169, -130, -113, -111, -96, -79, -67, -55, -43, -31, -21, -19, -26, -33, -43, -50, -70, -108, -135, -149, -186, -232, -256, -273, -287, -285, -277, -287, -287, -273, -265, -268, -268, -268, -261, -246, -248, -261, -253, -251, -258, -256, -251, -248, -251, -253, -251, -248, -246, -246])
('ECG', 1751734619940145594, [-248, -244, -236, -241, -248, -241, -236, -236, -241, -253, -256, -236, -210, -198, -200, -195, -205, -227, -232, -219, -222, -234, -232, -236, -299, -253, 198, 903, 1203, 430, -722, -703, -101, -159, -309, -166, -161, -241, -190, -152, -176, -157, -116, -111, -106, -82, -67, -60, -45, -36, -36, -29, -12, -12, -29, -41, -50, -65, -91, -118, -140, -169, -198, -229, -258, -270, -270, -270, -268, -265, -265, -261, -248])
('ECG', 1751734620501651362, [-239, -239, -239, -239, -232, -227, -234, -244, -244, -241, -232, -227, -229, -224, -232, -248, -251, -239, -244, -246, -234, -232, -232, -222, -222, -232, -229, -227, -229, -229, -227, -217, -210, -219, -222, -210, -200, -193, -178, -174, -181, -195, -217, -222, -212, -212, -222, -232, -251, -302, -236, 215, 913, 1222, 480, -640, -630, -65, -154, -321, -176, -161, -239, -200, -166, -186, -174, -145, -130, -118, -101, -84, -67])
('ECG', 1751734621063152046, [-55, -45, -31, -24, -31, -33, -26, -33, -53, -74, -94, -116, -154, -190, -207, -227, -261, -280, -285, -290, -292, -282, -277, -275, -273, -265, -261, -261, -256, -248, -248, -253, -258, -261, -253, -246, -241, -241, -244, -248, -248, -244, -244, -248, -248, -241, -244, -248, -244, -239, -241, -241, -239, -234, -236, -239, -236, -232, -234, -236, -229, -229, -234, -244, -253, -248, -227, -205, -198, -200, -205, -224, -241])
('ECG', 1751734621624652728, [-239, -229, -227, -229, -234, -265, -309, -132, 439, 1080, 1070, 53, -795, -437, -43, -263, -302, -171, -229, -265, -190, -169, -181, -159, -140, -130, -120, -125, -125, -111, -108, -103, -87, -82, -89, -84, -96, -125, -142, -149, -164, -193, -236, -273, -287, -299, -333, -350, -348, -348, -340, -331, -338, -345, -335, -323, -314, -306, -309, -316, -323, -323, -326, -328, -328, -331, -326, -311, -304, -319, -328, -328, -323])
('ECG', 1751734622186153410, [-302, -282, -290, -299, -299, -297, -294, -299, -297, -282, -277, -292, -287, -265, -273, -290, -273, -246, -246, -246, -229, -236, -273, -282, -270, -268, -268, -273, -304, -367, -280, 215, 925, 1138, 251, -836, -693, -137, -239, -335, -190, -198, -253, -203, -169, -174, -164, -149, -132, -113, -101, -91, -77, -60, -53, -48, -41, -48, -58, -55, -65, -91, -111, -125, -161, -203, -227, -246, -270, -282, -287, -287, -287])
('ECG', 1751734622747654092, [-292, -290, -287, -290, -287, -280, -268, -265, -273, -273, -265, -268, -270, -275, -275, -273, -275, -285, -290, -294, -304, -302, -297, -304, -306, -306, -326, -343, -333, -328, -340, -338, -328, -331, -333, -326, -321, -328, -328, -306, -275, -261, -256, -244, -246, -273, -294, -292, -285, -282, -275, -287, -350, -294, 169, 879, 1160, 377, -754, -729, -145, -193, -331, -195, -188, -258, -217, -186, -205, -188, -159, -152, -137])
('ECG', 1751734623309154774, [-120, -111, -96, -84, -74, -58, -41, -48, -60, -62, -67, -89, -113, -125, -145, -178, -210, -232, -251, -275, -299, -304, -302, -299, -292, -290, -294, -287, -282, -282, -280, -282, -280, -275, -275, -285, -290, -287, -282, -275, -275, -285, -285, -282, -277, -277, -282, -282, -268, -261, -270, -277, -273, -263, -263, -268, -265, -253, -253, -256, -253, -244, -236, -241, -241, -229, -227, -236, -234, -210, -186, -176, -161])
('ECG', 1751734623870655456, [-142, -142, -166, -186, -181, -181, -186, -178, -195, -258, -200, 244, 928, 1239, 531, -589, -613, -33, -94, -268, -132, -108, -178, -140, -106, -116, -99, -82, -84, -70, -45, -36, -33, -21, -9, -4, -9, -9, 0, -7, -31, -48, -67, -89, -116, -147, -181, -210, -236, -261, -277, -282, -287, -292, -285, -273, -258, -251, -256, -253, -248, -244, -239, -241, -251, -258, -241, -224, -234, -248, -256, -256, -258])
('ECG', 1751734624432156138, [-256, -253, -246, -241, -232, -222, -224, -236, -234, -227, -229, -227, -215, -215, -219, -215, -212, -217, -215, -212, -212, -210, -207, -210, -207, -207, -210, -207, -200, -195, -200, -200, -186, -176, -176, -159, -161, -203, -227, -212, -212, -219, -215, -224, -275, -277, 24, 681, 1232, 908, -258, -761, -215, -33, -299, -246, -142, -222, -232, -178, -181, -181, -157, -145, -135, -118, -99, -82, -70, -65, -60, -50, -45])
('ECG', 1751734624993656820, [-41, -41, -43, -62, -94, -120, -142, -171, -200, -224, -246, -265, -297, -326, -331, -333, -345, -350, -343, -338, -335, -333, -326, -323, -321, -311, -294, -287, -297, -309, -319, -321, -319, -311, -297, -277, -275, -290, -290, -277, -268, -265, -268, -265, -258, -265, -268, -261, -256, -248, -232, -232, -239, -224, -212, -215, -212, -205, -215, -227, -222, -210, -203, -203, -203, -198, -198, -203, -203, -203, -198, -181, -171])
('ECG', 1751734625555142242, [-164, -157, -174, -207, -217, -203, -200, -215, -217, -248, -299, -108, 488, 1119, 1032, -67, -872, -442, -67, -290, -304, -181, -239, -263, -205, -200, -207, -171, -149, -149, -132, -116, -116, -106, -94, -89, -79, -72, -82, -89, -84, -87, -111, -149, -176, -193, -217, -244, -268, -299, -321, -328, -326, -319, -314, -304, -294, -299, -306, -294, -280, -265, -256, -263, -275, -277, -275, -275, -277, -285, -282, -265, -256])
('ECG', 1751734626116627666, [-263, -265, -263, -261, -261, -256, -244, -246, -244, -232, -234, -236, -217, -212, -222, -215, -210, -212, -217, -215, -210, -210, -212, -207, -205, -210, -212, -207, -203, -203, -195, -183, -174, -166, -171, -193, -207, -210, -205, -200, -207, -241, -304, -251, 171, 874, 1247, 567, -621, -717, -111, -125, -311, -186, -145, -217, -188, -152, -164, -152, -130, -125, -118, -103, -89, -70, -50, -36, -19, -14, -14, -12, -29])
('ECG', 1751734626678128348, [-55, -70, -79, -108, -142, -174, -210, -248, -265, -270, -277, -285, -292, -294, -287, -282, -277, -273, -273, -258, -244, -246, -248, -244, -241, -244, -241, -246, -256, -248, -241, -241, -236, -234, -236, -234, -232, -229, -229, -227, -227, -232, -239, -239, -236, -234, -234, -229, -224, -227, -229, -229, -232, -232, -229, -227, -222, -215, -217, -210, -200, -200, -207, -215, -219, -222, -224, -217, -195, -186, -190, -181, -166])
('ECG', 1751734627239629030, [-176, -198, -198, -190, -195, -198, -198, -236, -248, 41, 710, 1273, 966, -207, -758, -224, -19, -277, -232, -125, -203, -205, -140, -140, -147, -118, -99, -94, -84, -67, -53, -45, -38, -31, -16, -9, -9, -14, -21, -43, -65, -87, -111, -147, -186, -217, -239, -256, -270, -280, -285, -287, -280, -273, -265, -256, -246, -244, -236, -227, -224, -219, -217, -222, -219, -215, -215, -217, -212, -212, -217, -215, -212])
('ECG', 1751734627801129712, [-215, -215, -215, -215, -212, -212, -217, -219, -215, -212, -217, -224, -219, -217, -227, -232, -227, -229, -219, -205, -210, -215, -212, -207, -212, -215, -212, -210, -200, -188, -183, -195, -210, -205, -198, -195, -188, -171, -159, -174, -203, -217, -212, -200, -200, -207, -234, -292, -195, 304, 1000, 1220, 379, -693, -582, -45, -171, -311, -169, -176, -248, -203, -174, -188, -159, -132, -137, -128, -103, -94, -89, -72, -50])
('ECG', 1751734628362630394, [-36, -26, -19, -21, -33, -48, -60, -79, -108, -135, -159, -186, -229, -270, -290, -297, -302, -309, -319, -309, -285, -277, -290, -297, -287, -273, -273, -277, -265, -251, -253, -261, -253, -256, -263, -258, -253, -258, -253, -248, -253, -251, -239, -244, -246, -234, -236, -241, -239, -248, -256, -246, -241, -246, -253, -256, -253, -253, -251, -244, -248, -256, -253, -239, -232, -234, -227, -198, -188, -195, -190, -190, -215])
('ECG', 1751734628924131076, [-239, -241, -234, -239, -244, -258, -321, -248, 253, 983, 1222, 350, -778, -667, -96, -198, -319, -174, -171, -232, -186, -154, -166, -154, -132, -125, -113, -99, -101, -108, -96, -96, -101, -74, -50, -55, -60, -65, -84, -106, -130, -152, -186, -234, -273, -304, -326, -323, -316, -319, -319, -314, -309, -302, -290, -275, -258, -244, -246, -253, -251, -239, -229, -232, -251, -277, -280, -277, -282, -280, -280, -285, -275])
('ECG', 1751734629485621584, [-258, -253, -261, -280, -292, -294, -285, -273, -256, -253, -258, -253, -244, -234, -227, -222, -219, -215, -203, -198, -200, -198, -188, -186, -195, -198, -190, -183, -188, -207, -210, -200, -222, -251, -261, -273, -290, -290, -294, -343, -396, -219, 379, 1051, 1044, -7, -896, -514, -79, -319, -372, -212, -248, -287, -229, -224, -227, -186, -171, -183, -132, -43, -24, -43, -41, -14, 38, 74, 72, 67, 67, 55, 29])
('ECG', 1751734630047101922, [0, -29, -70, -120, -157, -181, -210, -234, -241, -244, -253, -256, -244, -241, -244, -236, -229, -236, -251, -258, -282, -355, -473, -490, -340, -210, -210, -210, -186, -190, -198, -186, -190, -205, -212, -217, -232, -253, -241, -210, -207, -217, -207, -195, -190, -195, -195, -195, -219, -251, -246, -239, -270, -294, -265, -210, -181, -176, -176, -181, -183, -181, -183, -183, -176, -164, -152, -145, -137, -147, -171, -186, -188])
('ECG', 1751734630608602604, [-186, -183, -183, -200, -261, -239, 145, 845, 1307, 797, -396, -700, -113, -50, -297, -207, -137, -212, -195, -152, -164, -157, -128, -118, -116, -96, -74, -67, -55, -41, -41, -38, -24, -9, -19, -26, -24, -48, -84, -103, -128, -171, -215, -246, -263, -273, -280, -285, -287, -290, -282, -273, -263, -253, -251, -258, -253, -234, -227, -236, -241, -241, -239, -239, -234, -232, -239, -241, -232, -229, -239, -239, -234])
('ECG', 1751734631170103286, [-232, -229, -232, -232, -232, -234, -229, -224, -232, -229, -224, -232, -232, -227, -227, -227, -222, -219, -224, -236, -239, -229, -219, -222, -229, -241, -244, -234, -212, -203, -203, -198, -183, -178, -195, -217, -207, -186, -193, -205, -215, -265, -265, 89, 785, 1276, 826, -352, -725, -159, -58, -299, -210, -135, -227, -224, -171, -174, -164, -140, -140, -135, -118, -106, -87, -65, -55, -45, -26, -16, -14, -14, -24])
('ECG', 1751734631731603968, [-45, -72, -96, -130, -171, -207, -241, -275, -306, -319, -321, -328, -326, -321, -323, -316, -302, -285, -275, -280, -285, -270, -263, -261, -244, -224, -227, -241, -248, -244, -244, -248, -248, -248, -251, -248, -244, -236, -236, -234, -234, -236, -234, -224, -212, -215, -232, -234, -217, -207, -210, -210, -215, -219, -212, -205, -207, -210, -210, -212, -215, -210, -205, -195, -193, -193, -181, -171, -193, -210, -207, -207, -215])
('ECG', 1751734632293089390, [-210, -200, -244, -311, -154, 437, 1133, 1172, 103, -860, -505, -36, -232, -265, -116, -164, -207, -152, -140, -149, -120, -108, -116, -99, -74, -65, -58, -43, -24, -14, -12, -7, -7, -19, -31, -41, -62, -101, -135, -166, -212, -251, -265, -275, -294, -309, -306, -297, -292, -294, -292, -285, -275, -265, -265, -263, -251, -246, -256, -261, -248, -246, -246, -246, -246, -251, -258, -258, -256, -253, -248, -248, -256])
('ECG', 1751734632854574814, [-256, -246, -236, -234, -239, -244, -239, -229, -224, -219, -219, -219, -222, -224, -215, -207, -212, -219, -224, -224, -217, -217, -227, -224, -215, -210, -210, -198, -190, -207, -222, -229, -232, -227, -219, -224, -258, -299, -116, 476, 1138, 1114, 41, -831, -435, -26, -263, -294, -145, -193, -232, -174, -159, -157, -123, -108, -108, -96, -84, -70, -50, -36, -29, -21, -12, -7, -7, -14, -31, -43, -62, -94, -130])
('ECG', 1751734633416075496, [-161, -195, -232, -258, -277, -287, -290, -292, -294, -290, -280, -273, -268, -261, -253, -248, -253, -253, -246, -253, -261, -246, -232, -241, -256, -256, -248, -248, -253, -248, -241, -241, -248, -253, -248, -244, -246, -251, -251, -246, -244, -236, -224, -219, -222, -219, -215, -215, -210, -207, -207, -210, -205, -200, -195, -205, -222, -222, -207, -198, -186, -174, -164, -166, -176, -188, -193, -200, -207, -205, -219, -277, -277])
('ECG', 1751734633977576178, [45, 725, 1273, 925, -263, -758, -212, -48, -302, -241, -152, -222, -207, -154, -164, -164, -132, -120, -118, -108, -94, -72, -55, -36, -14, 0, 2, 7, 4, -14, -33, -45, -70, -116, -154, -181, -210, -244, -263, -277, -290, -290, -292, -294, -290, -282, -282, -285, -280, -273, -268, -263, -251, -248, -256, -258, -253, -251, -248, -248, -253, -239, -227, -239, -246, -236, -232, -241, -253, -248, -234, -224, -222])
('ECG', 1751734634539076860, [-219, -224, -227, -219, -219, -224, -215, -210, -217, -217, -207, -207, -222, -229, -212, -190, -176, -178, -181, -178, -195, -207, -210, -212, -217, -217, -222, -263, -277, 14, 681, 1220, 870, -311, -838, -292, -79, -319, -258, -154, -234, -236, -171, -171, -176, -152, -132, -120, -111, -113, -101, -72, -62, -62, -45, -36, -41, -43, -45, -62, -74, -94, -142, -195, -239, -275, -304, -338, -364, -367, -355, -352, -357])
('ECG', 1751734635100557196, [-352, -335, -316, -306, -316, -321, -314, -309, -314, -314, -304, -285, -273, -270, -261, -256, -248, -241, -236, -236, -241, -244, -239, -239, -248, -251, -248, -261, -268, -256, -248, -256, -246, -232, -234, -248, -256, -246, -222, -193, -176, -174, -166, -169, -186, -203, -210, -207, -200, -198, -212, -280, -306, 16, 727, 1261, 812, -439, -872, -268, -89, -319, -253, -183, -261, -268, -227, -205, -178, -147, -125, -113, -103])
('ECG', 1751734635662047706, [-87, -60, -43, -24, -7, 0, 4, 14, 16, -2, -19, -29, -60, -103, -142, -181, -217, -251, -280, -297, -299, -304, -306, -304, -299, -290, -285, -280, -277, -277, -275, -270, -268, -270, -273, -273, -270, -268, -270, -270, -265, -265, -270, -265, -261, -263, -258, -253, -256, -253, -246, -248, -248, -236, -229, -227, -222, -222, -224, -224, -227, -232, -217, -195, -188, -186, -164, -154, -181, -195, -186, -183, -186])
('ECG', 1751734636223548388, [-176, -178, -227, -263, -12, 650, 1271, 1080, -60, -773, -297, 21, -222, -217, -96, -157, -171, -123, -128, -128, -103, -101, -94, -70, -50, -38, -21, -7, 4, 16, 21, 31, 33, 19, 4, -2, -26, -77, -130, -176, -212, -241, -263, -280, -290, -287, -275, -263, -258, -256, -258, -258, -253, -253, -256, -246, -229, -232, -241, -236, -236, -248, -248, -232, -229, -239, -232, -224, -224, -222, -219, -215, -217])
('ECG', 1751734636785043982, [-219, -217, -210, -205, -212, -215, -205, -205, -207, -200, -203, -210, -210, -203, -198, -190, -178, -171, -166, -174, -190, -200, -198, -188, -181, -176, -181, -234, -275, -4, 667, 1252, 998, -154, -783, -280, -21, -282, -261, -140, -198, -210, -157, -164, -176, -145, -116, -99, -87, -82, -74, -55, -31, -16, -7, 0, -4, -9, -9, -21, -38, -60, -103, -152, -181, -210, -251, -285, -299, -311, -321, -316, -311])
('ECG', 1751734637346549750, [-311, -304, -302, -302, -294, -282, -270, -268, -270, -273, -268, -263, -261, -251, -246, -258, -268, -261, -253, -261, -263, -261, -253, -246, -246, -246, -248, -251, -246, -246, -246, -239, -236, -234, -234, -241, -246, -236, -236, -241, -227, -210, -215, -219, -219, -241, -258, -248, -241, -246, -241, -244, -297, -294, 53, 749, 1230, 729, -485, -833, -239, -111, -319, -222, -140, -212, -207, -164, -174, -159, -120, -116, -118])
('ECG', 1751734637908019916, [-96, -67, -58, -48, -21, 4, 12, 14, 16, 14, 2, -16, -41, -65, -89, -123, -171, -215, -241, -258, -273, -285, -294, -292, -282, -280, -280, -277, -277, -265, -251, -246, -248, -256, -253, -251, -258, -263, -258, -258, -258, -253, -246, -253, -265, -261, -253, -258, -256, -246, -248, -256, -248, -239, -246, -251, -236, -227, -227, -229, -236, -239, -222, -210, -203, -186, -174, -171, -183, -200, -212, -212, -203])
('ECG', 1751734638469520598, [-195, -193, -217, -290, -210, 294, 1019, 1256, 386, -749, -640, -65, -169, -287, -137, -140, -203, -164, -137, -145, -132, -113, -101, -84, -67, -58, -50, -33, -14, -4, -2, -4, -9, -12, -26, -48, -62, -87, -137, -186, -215, -246, -282, -306, -323, -328, -323, -316, -319, -328, -323, -309, -302, -294, -282, -282, -290, -285, -282, -287, -282, -277, -273, -268, -265, -258, -251, -246, -246, -253, -251, -244, -248])
('ECG', 1751734639031021280, [-256, -251, -244, -241, -244, -234, -229, -234, -232, -219, -222, -227, -224, -222, -224, -234, -239, -227, -205, -193, -188, -181, -176, -200, -234, -236, -222, -219, -219, -222, -273, -319, -94, 536, 1172, 1056, -65, -845, -384, -43, -314, -306, -137, -190, -210, -140, -132, -140, -116, -101, -94, -77, -67, -65, -50, -19, 0, -2, 0, 4, 7, 0, -21, -50, -79, -116, -161, -207, -251, -282, -294, -299, -304])
('ECG', 1751734639592511788, [-306, -314, -319, -309, -292, -280, -275, -268, -263, -258, -253, -253, -256, -261, -270, -273, -261, -256, -256, -258, -261, -253, -246, -246, -248, -246, -246, -244, -248, -251, -248, -246, -239, -227, -232, -244, -236, -232, -236, -236, -236, -239, -232, -227, -224, -215, -203, -195, -210, -224, -219, -215, -215, -207, -198, -224, -287, -157, 403, 1104, 1215, 248, -766, -526, -33, -207, -294, -145, -169, -219, -159, -140, -166])
('ECG', 1751734640153992126, [-152, -120, -106, -89, -74, -65, -53, -31, -14, -2, 9, 14, 0, -7, -12, -33, -65, -94, -137, -190, -227, -248, -275, -294, -306, -316, -319, -321, -323, -321, -314, -304, -292, -285, -282, -275, -268, -270, -275, -268, -265, -270, -265, -253, -248, -258, -258, -246, -244, -251, -251, -251, -251, -241, -234, -241, -239, -224, -227, -234, -232, -234, -229, -224, -222, -229, -232, -222, -215, -205, -183, -166, -171])
('ECG', 1751734640715492808, [-188, -203, -203, -200, -203, -200, -195, -224, -277, -137, 420, 1126, 1220, 190, -831, -524, -16, -200, -261, -101, -142, -198, -137, -120, -137, -108, -82, -89, -82, -53, -33, -24, -9, 7, 14, 16, 24, 29, 21, 4, -14, -38, -74, -125, -164, -193, -229, -268, -292, -302, -311, -319, -316, -311, -304, -302, -294, -285, -275, -270, -275, -275, -265, -265, -263, -253, -261, -268, -265, -263, -258, -258, -261])
('ECG', 1751734641276993490, [-253, -256, -261, -256, -251, -246, -241, -239, -241, -239, -229, -224, -229, -224, -207, -207, -219, -219, -212, -215, -212, -212, -229, -222, -193, -176, -166, -154, -149, -164, -176, -169, -161, -166, -171, -183, -232, -265, -19, 630, 1256, 1087, -79, -816, -316, 14, -239, -239, -120, -174, -178, -120, -130, -142, -106, -87, -84, -70, -58, -53, -33, -9, 0, 7, 24, 33, 31, 29, 16, -9, -38, -70, -106])
('ECG', 1751734641838494172, [-149, -195, -232, -248, -265, -282, -290, -290, -292, -294, -285, -273, -263, -258, -253, -248, -258, -268, -265, -265, -268, -251, -239, -234, -232, -232, -234, -232, -229, -232, -239, -236, -229, -219, -219, -229, -232, -227, -219, -210, -205, -210, -210, -200, -195, -205, -215, -215, -207, -193, -171, -159, -164, -181, -198, -203, -200, -195, -193, -190, -215, -280, -232, 203, 918, 1322, 684, -534, -698, -87, -91, -309, -188])
('ECG', 1751734642399979594, [-149, -229, -200, -161, -171, -149, -120, -118, -108, -89, -74, -60, -43, -33, -21, 2, 12, -2, -12, -7, -19, -53, -84, -120, -169, -205, -239, -285, -316, -319, -326, -335, -331, -316, -302, -292, -285, -277, -277, -273, -261, -258, -256, -251, -251, -258, -258, -261, -263, -263, -263, -256, -241, -232, -232, -241, -253, -261, -258, -248, -239, -234, -227, -224, -219, -215, -224, -234, -229, -219, -205, -188, -174])
('ECG', 1751734642961465018, [-169, -171, -183, -198, -205, -198, -188, -186, -193, -248, -280, 12, 715, 1322, 1003, -251, -826, -222, 29, -229, -176, -67, -145, -142, -84, -106, -120, -96, -84, -70, -48, -48, -53, -41, -24, -12, -4, 4, 16, 21, 7, -16, -29, -48, -101, -159, -200, -232, -258, -270, -282, -306, -319, -316, -321, -316, -297, -285, -290, -292, -277, -248, -236, -244, -246, -248, -253, -251, -246, -244, -239, -234, -236])
