129991645,0.1337423
129999835,1.905878
130008114,1.797061
130065202,1.646349
130073695,1.635875
130082251,1.660902
130090867,1.639904
130099537,1.664124
130108334,1.654456
130117101,1.668153
130125978,1.660902
130134877,1.652845
130143841,1.556919
130153053,0.01289082
130162313,0.008862439
130223315,0.009668117
130232782,0.01047379
130242252,0.01289082
130251861,0.01047379
130261369,0.009668117
130271063,0.0136965
130280851,0.01208515
130333945,0.01289082
130343850,0.01047379
130353788,0.01047379
130363954,1.349004
130415652,3.25891
130457471,3.255688
130498972,3.253271
130540274,3.254882
130583965,3.254076
130668748,1.668958
130708182,1.667347
130749476,2.046066
130790202,3.24602
130832403,3.253271
130874973,3.256494
130918273,3.253271
130961287,3.253271
131001971,3.256494
131046085,3.255688
131090521,3.251659
131134792,3.254882
131178442,3.253271
131220110,3.254882
131262156,3.256494
131355311,3.251659
131399124,3.252465
131446648,3.249242
131496752,3.247631
131541161,3.249242
131584890,3.24602
131628285,3.212181
131672302,3.255688
131719704,1.654456
131762524,1.677015
131804642,1.663319
131850895,0.304596
131894916,0.5842161
131941034,1.818009
131985220,1.677015
132074029,1.73583
132120888,2.70531
132164782,1.511801
132210257,0.01127947
132255151,0.01208515
132298926,0.01127947
132343190,0.01047379
132385902,0.01208515
132434568,1.521469
132484805,1.654456
132530983,1.65929
132575344,0.01047379
132623166,0.01047379
132668380,0.01208515
132718892,0.01208515
132812118,0.01047379
132855700,0.01047379
132908380,0.01047379
132954623,0.01208515
133001161,0.0136965
133048156,0.01047379
133097014,0.01127947
133141000,0.009668117
133185866,0.01208515
133232375,0.01450217
133277579,0.01047379
133326405,0.01450217
133371682,0.01208515
133417382,0.2691463
133465575,1.137061
133557870,2.146825
133607323,2.512703
133655147,2.739148
133704797,3.228295
133753601,3.239574
133800554,3.24602
133847933,3.232323
133898157,2.61583
133946417,1.490048
133998883,0.01289082
134055545,0.009668117
134107529,0.01047379
134156683,0.01047379
134205932,0.008862439
134256985,0.01047379
134355684,0.0136965
134402974,0.1208514
134449670,0.2071092
134500291,1.726162
134549407,1.133033
134601055,2.499812
134649582,1.928437
134698562,3.183983
134749456,2.63436
134798604,3.238769
134848468,3.196068
134899532,3.244408
134949486,3.242797
134997945,3.250854
135045812,3.245214
135143729,3.244408
135199284,3.244408
135248958,2.982513
135298632,3.235546
135350128,2.866445
135400661,3.226683
135456301,3.215404
135508478,2.284646
135568042,2.17583
135620099,3.099386
135672553,2.136352
135723788,2.381328
135775528,2.229004
135826356,1.531943
135877225,2.239478
135976143,2.282229
136027381,1.216017
136079126,2.598911
136129301,0.8638865
136183030,2.021895
136237968,2.482893
136289043,1.394122
136343499,2.01545
136397892,2.39019
136455079,2.078343
136508968,1.225685
136559310,2.202417
136611801,1.358672
136668257,0.9782926
136721791,1.762417
136825239,1.26602
136885806,1.152369
136942704,1.602843
136997010,2.39583
137050941,1.616539
137106314,1.388482
137164538,1.610899
137216237,2.374076
137267761,1.324028
137324288,1.603648
137379278,2.350712
137437379,2.475642
137492895,2.040426
137544953,1.547251
137600668,2.273367
137699416,2.424834
137755136,3.24602
137812189,2.187109
137865909,1.682655
137920138,2.527205
137972680,2.368437
138030691,1.97436
138090146,1.79545
138146760,1.421515
138201374,1.923603
138257718,2.334598
138313220,2.100096
138374137,2.165356
138427842,1.375592
138492836,1.861565
138596056,1.469906
138652728,1.962275
138709552,1.457821
138768544,1.328862
138824542,1.178151
138880331,1.729384
138937991,2.125878
138994363,2.224976
139051872,1.925214
139108110,1.300664
139166667,1.067773
139225149,1.083886
139281431,1.336113
139340918,2.030758
139400333,1.667347
139505415,1.44493
139562405,1.847819
139619458,2.482087
139676739,2.834218
139735669,1.096777
139794091,0.01289082
139857673,0.01208515
139923330,0.01047379
139985331,0.8993362
140044557,2.600522
140103481,3.247631
140164071,3.253271
140226261,3.253271
140283918,1.544028
140341765,1.548862
140447337,0.01208515
140537345,0.01047379
140576848,0.01047379
140614958,0.01127947
140654023,1.76
140693184,1.658485
140732286,1.673793
140770824,0.05398031
140807734,0.01450217
140846162,1.81962
140883738,1.657679
140925424,1.673793
140967825,1.687489
141008131,0.2369192
141047134,0.01127947
141133865,0.01047379
141172420,0.01047379
141216565,0.01127947
141254970,0.01208515
141303940,0.0136965
141344390,0.01047379
141385248,0.01289082
141426191,0.01450217
141467757,0.0136965
141507644,0.01127947
141547511,0.01208515
141589141,0.009668117
141629746,0.01289082
141669586,1.324834
141710152,1.777725
141797349,2.282229
141838952,3.251659
141881151,3.254882
141923752,3.253271
141967474,3.255688
142011519,3.254076
142053696,3.256494
142092061,3.253271
142132413,3.254882
142175427,3.253271
142217386,3.253271
142265209,3.255688
142316212,3.256494
142360171,1.800284
142402740,1.697157
142492035,2.887393
142535227,2.125878
142581687,0.2046418
142621652,0.1973907
142662002,0.01047379
142704842,0.01127947
142750183,0.009668117
142792940,0.01289082
142836272,0.008056764
142881225,0.01127947
142924932,0.01289082
142968224,0.05236897
143014538,0.01289082
143057399,0.88
143101069,0.9106157
143190705,2.17583
143236642,1.913935
143286230,2.105736
143330823,2.612607
143374462,2.475642
143420237,1.89057
143464782,2.189526
143514952,2.463506
143559660,2.190332
143613091,2.725452
143658692,2.079149
143704444,3.24602
143750539,3.034076
143797019,2.572323
143842018,2.375688
143936659,2.548959
143983059,2.441753
144028281,2.940618
144074698,2.640806
144120165,2.073509
144168096,2.766541
144214813,2.357157
144261008,2.04526
144309533,2.903557
144358069,1.930854
144408186,3.242797
144456109,1.942939
144502339,2.367631
144550379,3.173509
144595445,2.955926
144689022,3.227489
144740666,2.469952
144794650,2.591659
144843558,2.213696
144891186,2.405498
144938224,1.541611
144985439,2.112987
145037273,1.395734
145083951,1.560142
145129230,3.205736
145179653,0.9396201
145229760,1.932465
145278616,1.157203
145326184,1.842179
145373676,1.589146
145467703,1.876873
145517585,1.124976
145567052,1.838956
145616717,1.126587
145665120,1.679432
145711812,1.818009
145763724,1.566587
145818182,1.144312
145866719,1.491659
145915505,1.638292
145965890,2.386967
146015133,1.906683
146068861,2.533651
146119754,1.70602
146177870,1.590758
146273448,1.815592
146325884,2.212891
146376790,1.573033
146429889,2.85436
146479863,2.381328
146528597,3.182371
146580162,3.242797
146630427,3.241185
146680730,3.239574
146731053,3.24038
146782731,3.253271
146834987,3.255688
146885164,3.254076
146940197,3.255688
146993740,3.257299
147094944,3.256494
147148511,3.256494
147196879,3.254076
147247147,3.254076
147299070,3.256494
147351507,3.254076
147407150,3.254076
147466869,3.254076
147522867,3.254076
147575901,3.253271
147628675,3.254076
147683428,3.257299
147738314,3.254076
147789990,0.01127947
147840334,0.01047379
147940076,0.009668117
147995332,0.01047379
148047627,0.01127947
148098357,0.01289082
148152824,3.252465
148205758,3.254882
148260014,3.25891
148315503,2.615024
148367808,0.01208515
148423158,0.01047379
148474844,0.009668117
148531718,0.01208515
148591224,0.01047379
148645004,0.01047379
148698650,0.009668117
148800989,0.01047379
148855460,0.01208515
148915137,0.01450217
148967743,0.01047379
149030750,0.009668117
149087110,0.01127947
149145192,0.01047379
149198788,0.01208515
149254469,0.008862439
149309637,1.158814
149364674,1.218434
149420366,1.780948
149475816,1.699574
149531304,2.24109
149587596,3.114694
149692243,3.217015
149750993,3.237963
149806289,3.245214
149863281,3.250854
149922074,3.251659
149982263,3.244408
150040183,3.189622
150096389,2.627109
150152716,3.250048
150210737,3.256494
150270009,1.665736
150330388,1.66493
150395168,0.01289082
150455006,0.01289082
150514798,0.01047379
150618878,0.01289082
150678521,0.01127947
150740142,0.01047379
150796959,0.01127947
150854124,0.01127947
150913177,0.01047379
150973636,0.01289082
151032872,0.009668117
151089894,0.01289082
151149483,1.188624
151207545,2.506258
151267146,3.24038
151327996,3.252465
151386326,3.253271
151444498,3.253271
151590934,3.253271
151627724,3.254076
151667282,3.252465
151706602,3.254076
151744149,3.254076
151786635,3.254076
151826781,3.251659
151875175,3.246825
151916865,3.250854
151956406,3.251659
151996334,3.256494
152036665,3.254882
152074633,3.246825
152115214,3.249242
152155842,3.243603
152245035,2.006587
152285542,1.696352
152326813,1.354644
152367276,1.172511
152408850,0.799382
152448086,0.7897139
152490753,0.7220371
152533154,1.103223
152575743,1.453793
152618945,1.934076
152657128,1.47474
152697500,1.141895
152741126,0.8211353
152784108,1.396539
152829785,1.092749
152931897,0.2280568
152975604,0.1651637
153019524,0.009668117
153061457,0.01289082
153103554,1.315972
153148705,0.6059693
153187907,0.009668117
153228032,0.2804257
153269687,0.01289082
153314014,0.01047379
153357141,1.743886
153397024,3.246825
153440657,3.013935
153482691,2.067869
153526352,2.001753
153619150,3.250048
153660674,3.254076
153702888,3.255688
153747993,3.253271
153790151,3.255688
153832233,3.250048
153876090,3.249242
153918703,3.253271
153964880,3.254076
154005461,3.254882
154049288,3.254882
154103050,3.254076
154148884,3.251659
154194992,3.251659
154239704,3.246825
154337368,1.190236
154380994,0.09184711
154426327,0.009668117
154469858,0.01208515
154513867,0.01289082
154559112,0.01289082
154603517,0.008862439
154648540,0.008862439
154694005,0.01289082
154738193,0.01289082
154783275,0.01047379
154829758,0.01127947
154878809,0.01127947
154924681,0.0136965
154967950,0.01047379
155059434,0.9009476
155106040,0.3609934
155154086,1.139478
155204648,1.110474
155260376,1.677015
155309125,0.8292424
155356532,1.913129
155404956,1.218434
155453538,0.9573449
155503825,0.01047379
155549660,0.24981
155593933,1.664124
155641612,1.957441
155690619,1.211989
155738469,2.054122
155836362,2.269338
155883883,1.274882
155929990,1.878485
155976949,2.901945
156026463,1.67057
156073036,0.2522271
156120226,0.2320851
156170543,2.692419
156217404,3.051801
156263638,2.876919
156311424,3.217015
156358954,2.840664
156411213,1.935688
156457913,2.815688
156503034,2.80038
156610743,0.4230808
156660819,1.519858
156712151,1.332891
156759960,2.063035
156809270,1.228103
156858072,3.24602
156906464,1.618956
156956738,3.048579
157005795,2.375688
157056190,3.185594
157105262,2.079954
157154922,2.904362
157206832,1.885736
157254886,2.679478
157307426,1.596397
157413087,3.07436
157466063,1.523081
157516973,2.860806
157566823,0.331989
157616155,1.240238
157668480,0.4359716
157721335,1.378009
157776857,2.286258
157836215,2.440948
157889509,1.67621
157941444,1.945356
157993157,2.141186
158046802,0.5938842
158101809,0.8840283
158152529,1.246683
158250555,1.190236
158303059,1.372369
158358628,2.342655
158411175,2.125878
158462560,1.776114
158513080,2.492561
158563970,1.62943
158617113,3.226683
158671453,3.256494
158724467,3.254076
158776405,3.253271
158831733,3.250048
158884700,3.252465
158936515,1.748721
158990143,1.675404
159094581,0.01047379
159149917,0.0136965
159204173,0.01127947
159257311,0.01289082
159317924,0.01127947
159371624,0.01047379
159425488,0.01127947
159479808,0.009668117
159535075,0.01289082
159588712,0.008862439
159643091,0.01047379
159698444,0.008056764
159751610,0.009668117
159805914,0.01047379
159859042,0.009668117
159963814,2.081565
160019811,3.254076
160073759,3.255688
160130897,3.255688
160188189,3.255688
160247186,3.253271
160302866,3.253271
160356835,3.253271
160411243,0.01289082
160469562,0.009668117
160527635,0.01289082
160587173,0.01127947
160650976,0.01127947
160709720,3.253271
160768253,3.252465
160877262,2.206445
160933093,3.250854
160994136,3.256494
161049014,3.255688
161104184,3.253271
161162552,3.255688
161220215,3.257299
161278129,3.256494
161334397,3.254076
161392663,3.255688
161449593,3.254076
161509535,3.255688
161567380,3.254076
161625435,3.254882
161682106,3.256494
161786609,3.249242
161843471,2.540096
161900500,1.967915
161957267,1.856732
162014873,2.017867
162076937,1.464266
162136314,1.240238
162192477,1.493271
162260421,0.3634104
162317330,0.4746441
162376226,2.26526
162435425,1.299052
162495256,1.65929
162553306,1.656068
162610387,0.008862439
162753585,0.0136965
162792833,0.01289082
162831037,0.01289082
162870363,0.01289082
162910584,0.008862439
162948521,0.01289082
162989772,0.01047379
163030966,0.009668117
163072154,0.0136965
163112633,0.01127947
163151436,0.01208515
163192083,0.01047379
163232841,0.01047379
163273160,0.01289082
163316289,0.01208515
163410075,1.813175
163453869,2.482087
163496613,2.688391
163537170,3.153367
163577980,3.242797
163623147,3.250854
163662855,3.256494
163701605,3.253271
163743101,3.255688
163787347,3.255688
163827553,3.253271
163867995,3.250854
163910500,3.253271
163952897,3.253271
163995288,3.255688
164089743,3.254076
164129942,3.253271
164170834,3.255688
164214903,3.254882
164256687,3.250854
164297506,3.251659
164340771,3.247631
164382997,3.246825
164426533,3.238769
164469876,3.245214
164510122,3.030048
164560071,2.364408
164603668,2.540096
164647261,2.973651
164689659,3.005878
164780309,1.595592
164822393,1.814786
164865394,2.320902
164909121,2.779432
164952828,2.464312
164996871,1.697963
165039872,1.457821
165083899,1.684266
165126758,2.147631
165172692,3.233934
165217843,1.217629
165264350,1.702797
165309911,2.369242
165353223,1.936493
165396169,1.370758
165493675,1.760806
165538525,0.974264
165586641,1.881707
165639640,0.7840741
165688008,1.93166
165734008,1.57545
165778564,0.8654978
165825072,1.496493
165872676,2.602939
165917151,0.4690043
165959815,0.9259235
166007684,2.10493
166055236,1.31436
166100761,1.019382
166144768,1.737441
166235088,1.326445
166280494,0.7760174
166327336,1.79545
166372753,1.423127
166419481,0.6309957
166464341,1.48602
166514409,1.163648
166559950,0.8146898
166605707,2.847109
166652093,1.972749
166699188,1.181373
166747289,2.382133
166794294,1.570616
166837956,1.16526
166893900,1.719716
166995355,1.386871
167042736,1.650428
167088948,2.374882
167137474,1.113696
167182534,1.745498
167229343,2.377299
167276292,1.263603
167324771,1.938105
167371813,2.234644
167421076,1.677821
167469370,2.53929
167516475,1.294218
167566635,2.536873
167616764,1.259574
167668758,2.443365
167764530,2.032369
167811119,1.930048
167859622,1.216017
167909436,2.126683
167960814,1.208766
168014670,2.368437
168071438,1.826871
168123266,1.838151
168173774,1.341753
168223690,1.859149
168275385,1.099194
168331253,1.852653
168380168,1.262797
168429039,2.122655
168481640,1.407013
168585567,2.269338
168636768,0.9033646
168686681,2.135546
168738202,1.902655
168790193,1.299052
168841952,1.097583
168893108,0.7679606
168943004,1.322417
168994777,0.8090501
169049445,2.331376
169101517,2.027535
169151856,2.000947
169203625,2.522371
169256348,1.399762
169310258,2.494978
169411205,2.544124
169462628,1.66493
169521198,1.813175
169575530,1.228908
169629364,2.292703
169682003,2.323319
169735175,1.550474
169785689,2.910002
169838687,1.768057
169890353,2.316068
169942355,2.55621
169996220,1.332891
170048932,2.038814
170102709,2.316874
170154458,1.710854
170262119,2.032369
170317083,1.019382
170373484,0.9807095
170429495,2.258009
170480299,1.63507
170533027,0.8074388
170587457,1.691517
170643155,1.9091
170700917,1.358672
170762834,2.477253
170820808,1.454598
170876167,0.3779126
170931134,0.01127947
170987832,0.9887663
171045914,2.361991
171146981,1.585924
171200920,1.321611
171256509,0.9227008
171313478,1.618956
171367564,1.922797
171422061,2.809242
171478315,0.942037
171532964,1.37962
171589566,2.482087
171645607,3.181566
171700159,2.720618
171755092,2.130712
171813429,2.154076
171870135,2.3491
171925156,2.818911
172036227,1.228908
172090838,1.643932
172149347,0.9710415
172206662,1.690712
172259665,1.650428
172324791,1.531943
172382213,1.352227
172441002,1.203932
172496591,1.225685
172554569,0.9380087
172610850,0.008862439
172668702,0.01047379
172725226,0.009668117
172783212,0.01047379
172841676,0.009668117
172944175,0.799382
173004496,2.288675
173060306,3.17512
173117426,3.256494
173177454,3.255688
173238993,3.255688
173299815,3.252465
173355375,3.250048
173412233,3.253271
173468787,3.232323
173527646,1.056494
173588378,0.01289082
173653624,0.01289082
173714975,0.01127947
173772714,1.257157
173885620,1.772085
173944923,2.493367
174008778,3.243603
174044674,3.245214
174082590,3.250854
174122267,3.253271
174163671,3.252465
174201716,3.253271
174239873,3.251659
174280209,3.246825
174318919,3.251659
174359224,2.308011
174397944,2.812465
174436304,2.422417
174474961,2.018672
174564633,2.528817
174603708,1.941328
174641893,1.607677
174681612,1.558531
174721880,1.642321
174765769,1.775308
174806097,1.981611
174846198,2.291898
174895049,2.029146
174936568,1.984028
174977386,2.486922
175018638,2.557821
175061831,2.536873
175101827,3.228295
175142690,1.346587
175239122,0.5592401
175282385,0.01047379
175324866,0.009668117
175365940,0.4851179
175407800,0.7977707
175447304,1.299052
175492464,1.380426
175535274,1.551279
175579344,1.820426
175621349,1.981611
175662607,1.993697
175703032,1.912323
175746862,1.934076
175788730,1.465072
175833383,1.245072
175929481,1.303081
175974274,1.511801
176016180,1.645544
176059087,1.833316
176102385,1.963886
176144259,1.988057
176186354,1.857537
176230021,1.768862
176275296,1.73583
176319106,1.882513
176362389,1.923603
176407250,1.857537
176452631,1.660096
176497371,1.718105
176543528,1.897821
176639825,1.702797
176683298,1.703603
176729148,1.590758
176772618,1.558531
176816209,1.641515
176861279,1.878485
176908663,1.818009
176955680,1.695546
176999634,1.718105
177042338,1.789004
177097243,1.65929
177141769,1.801089
177188914,1.619762
177234930,1.513413
177282691,1.744692
177373702,1.471517
177419129,1.708437
177465751,1.682655
177513471,1.470712
177558406,3.030854
177605751,1.745498
177652784,1.590758
177698052,1.790616
177746421,1.895404
177793275,1.679432
177842263,1.809952
177889976,1.592369
177933231,1.601231
177980099,1.829288
178028268,1.625402
178129573,1.580284
178179415,1.75436
178234710,1.618151
178284657,1.98564
178332581,1.511801
178380120,1.830899
178428097,1.121753
178473847,1.608482
178520485,1.859954
178568845,1.726162
178618735,1.880096
178667434,1.727773
178714624,1.60526
178763691,1.851847
178811343,1.585118
178905002,1.743081
178953689,1.51019
179000795,1.776919
179049975,1.567393
179100923,1.929242
179149016,1.574644
179197260,1.619762
179248958,1.236965
179297570,1.726162
179350577,1.600426
179401127,1.916352
179449358,1.653651
179509139,1.59962
179558840,1.797061
179610623,1.614122
179713161,1.558531
179765626,1.723745
179813863,1.56417
179864808,1.62943
179913526,1.99853
179964620,2.967205
180016113,3.253271
180068368,3.253271
180120082,2.315262
180169622,1.394928
180222664,1.357061
180275565,1.177345
180329779,0.9452599
180382052,1.025022
180432437,1.041991
180530105,0.9363974
180582246,1.220046
180635076,1.129004
180689528,1.2491
180746713,1.336113
180799947,1.491659
180851004,2.20564
180902343,1.608482
180953911,1.497299
181005072,1.727773
181055351,1.681044
181107469,1.633458
181162011,1.89621
181213140,1.736635
181264914,1.880096
181372131,1.688295
181423467,1.859149
181476484,2.041231
181528954,1.749526
181579866,1.834928
181631401,2.489338
181685594,1.768057
181737073,1.988057
181788465,1.821231
181842472,2.042843
181894379,1.745498
181951461,1.633458
182005973,1.982417
182056508,2.044454
182118782,2.122655
182222346,2.381328
182277270,2.154882
182332467,1.370758
182389423,0.5713253
182440643,1.298247
182496295,1.498911
182549552,0.7365393
182606650,1.26038
182659902,1.869622
182716455,1.94455
182772839,1.65929
182827090,0.8558297
182886108,0.7550698
182943582,0.009668117
183001320,0.01047379
183109927,0.8195239
183165046,1.2136
183220443,1.970332
183277355,2.515926
183333916,1.548862
183393003,1.37962
183457701,1.592369
183516377,1.909906
183573379,3.029242
183630245,3.241185
183688863,3.252465
183744810,3.24602
183798913,3.205736
183856616,3.253271
183914926,3.254076
184018937,3.252465
184075313,3.245214
184133829,3.24602
184189684,1.226491
184247176,0.4085283
184304127,0.01047379
184360499,0.01047379
184417442,0.01127947
184476139,0.009668117
184532565,1.704408
184589849,0.4085283
184648604,0.2208057
184706252,0.5108995
184768389,0.8211353
184826955,1.041991
184940273,1.780948
185005380,1.414264
185064919,1.311138
185125523,1.083081
185184870,0.9557335
185246275,0.90981
185304675,1.633458
185391376,1.719716
185430569,1.806729
185470361,2.404692
185508959,2.0509
185550595,1.991279
185588640,1.201515
185628778,1.628624
185668459,1.789004
185755952,2.801991
185796360,2.840664
185833310,2.655308
185873717,2.36602
185914162,1.820426
185955954,1.144312
185998968,1.086303
186047250,1.013742
186089655,0.63019
186130635,0.8058273
186171330,0.657583
186211996,0.4770611
186251627,0.6970611
186290961,1.236965
186332328,1.521469
186427928,1.993697
186467559,2.187109
186507740,2.521566
186551084,2.61583
186591845,2.508675
186633989,2.765736
186675817,1.389288
186716017,2.000142
186756514,1.824454
186797943,1.762417
186838653,1.636681
186879321,1.540806
186919931,1.917157
186960987,2.031563
187005162,1.942939
187091763,2.12185
187131395,2.157299
187180508,2.317679
187222860,2.200806
187267219,1.982417
187310379,1.971138
187353866,2.980096
187394074,1.722939
187435935,2.288675
187478501,2.283035
187520521,2.224976
187564031,2.009004
187608175,1.992891
187650087,1.928437
187693610,1.981611
187789392,1.62943
187833541,1.727773
187878747,1.66493
187921947,1.477157
187963636,1.512607
188010096,1.423127
188054818,1.531943
188104583,2.763319
188156216,1.498911
188204442,1.400568
188248022,1.413458
188293062,1.608482
188338021,1.664124
188380970,1.589146
188423293,1.481186
188516438,1.729384
188563857,1.460238
188608101,1.4336
188652685,1.613317
188700599,1.549668
188745664,1.511801
188792137,1.580284
188839871,1.548057
188884366,3.088862
188929452,1.509384
188976100,1.835733
189021274,1.721328
189066381,1.614928
189113254,1.844596
189160632,1.716493
189265238,1.627013
189311777,1.793033
189358029,1.800284
189413384,1.796255
189461036,1.66493
189507346,1.60526
189553946,1.929242
189603307,1.569004
189649361,1.589146
189695787,3.228295
189744023,1.457821
189789898,1.780948
189837266,1.90185
189885999,1.666541
189934240,1.891376
190030708,1.758389
190078884,1.770474
190128883,1.62379
190176773,1.719716
190225773,1.481186
190272460,1.731801
190320421,1.632653
190370686,1.741469
190421256,1.758389
190478194,1.679432
190529986,3.195262
190577419,1.618151
190626082,1.626207
190675555,1.887347
190724057,1.615734
190826056,1.600426
190877906,1.822037
190929702,1.800284
190980020,1.689101
191029192,1.693129
191080140,1.624596
191129452,1.695546
191180551,1.615734
191231844,1.854264
191281040,1.56417
191330733,1.696352
191382209,1.227297
191429161,1.756777
191479008,1.777725
191529495,1.855875
191627611,1.722939
191680876,1.613317
191731878,1.840568
191780507,1.606065
191838835,1.631847
191890848,1.738247
191941477,1.553697
191993617,1.802701
192045278,1.596397
192094462,1.905072
192145500,1.502133
192197979,3.104221
192249124,1.660096
192300673,1.650428
192353050,1.893793
192458415,1.727773
192512738,1.814786
192567002,1.679432
192621359,1.568199
192672354,1.774502
192721513,1.529526
192773801,1.809146
192827623,1.705214
192880687,1.699574
192937095,1.701991
192998589,1.514218
193053269,1.126587
193104694,1.627819
193157550,1.730996
193210468,1.855875
193309302,1.755972
193360254,1.556919
193416360,1.743081
193472610,1.779336
193524982,1.594786
193577935,1.601231
193632605,1.781753
193685664,1.664124
193741256,1.564976
193798070,1.56417
193850858,2.39019
193903901,1.567393
193959745,1.609288
194012876,1.803506
194067112,1.65929
194173242,1.777725
194227881,1.723745
194286859,1.606065
194343533,1.53436
194398713,1.628624
194461635,1.585924
194518393,1.764028
194574872,1.672987
194631342,2.195166
194688345,1.581089
194742755,1.690712
194798118,1.762417
194854987,1.872845
194912405,1.919574
194968487,1.851041
195072992,1.872039
195130399,1.82526
195189533,1.81398
195248451,1.799478
195307436,1.892181
195365463,1.576255
195421767,1.975972
195480265,1.380426
195538413,1.611705
195596233,1.690712
195656816,1.644738
195720849,1.557725
195780913,1.581895
195839178,1.589146
195898845,1.550474
196008679,1.780948
196066023,1.799478
196121512,1.581089
196181122,1.553697
196241675,1.052465
196299182,1.760806
196357101,1.829288
196416853,1.785782
196474736,1.815592
196534385,1.739858
196593529,1.769668
196651321,1.747915
196711267,1.689101
196802390,1.490048
196841963,1.557725
196925896,1.590758
196965796,1.524692
197015356,0.9235065
197055330,1.564976
197092166,1.743886
197140189,1.530332
197179455,1.521469
197219157,1.491659
197260579,1.524692
197302527,1.532749
197341310,1.523081
197379513,1.485214
197420053,1.461044
197460955,1.443268
197500597,1.419098
197595136,1.537583
197634287,1.710048
197676517,1.397345
197717378,1.411847
197761016,3.217015
197802686,1.299052
197842471,1.601231
197882642,1.651234
197923902,1.710854
197966796,1.776114
198010863,1.772085
198059501,1.529526
198104413,1.737441
198146638,1.809146
198188328,1.787393
198278018,1.492465
198317800,1.515024
198357654,1.553697
198399130,1.691517
198442952,1.699574
198483820,1.685878
198525094,2.338627
198569773,1.38526
198611519,1.822843
198654867,1.699574
198697672,1.653651
198739094,1.608482
198782607,1.744692
198823312,1.734219
198865038,1.826066
198959910,1.606065
199001920,1.618151
199048606,1.731801
199090793,1.679432
199132661,1.627013
199184447,1.917157
199225971,1.693129
199270428,1.60526
199314712,1.772891
199361299,1.677821
199404645,1.847819
199448154,1.903461
199493517,1.706825
199538933,1.681044
199582881,1.782559
199676680,1.614928
199720193,1.652845
199768245,1.798673
199813291,1.601231
199858902,1.56417
199905126,1.878485
199946743,1.917963
199991458,1.59962
200037490,1.627819
200084969,1.229714
200132504,1.660096
200185478,1.838151
200231941,1.713271
200276618,1.614928
200322656,1.847013
200421196,1.788199
200466148,1.884124
200511246,1.667347
200558556,1.531943
200607115,1.747109
200654197,1.519052
200699989,1.709242
200747710,1.59962
200793654,1.494076
200841394,1.02341
200888511,1.713271
200935911,1.527915
200982111,1.730996
201028994,1.730996
201074214,1.574644
201168108,1.797061
201213779,1.584312
201264852,1.787393
201312304,1.561753
201357713,1.523081
201412716,1.702797
201461519,1.621373
201508875,1.646349
201557173,2.441753
201605975,1.783365
201652456,1.628624
201699681,1.722133
201748457,1.768862
201797678,1.608482
201847272,1.746303
201949008,1.709242
201997613,1.521469
202050212,1.549668
202101583,1.672987
202152968,1.73583
202201771,1.712465
202250580,1.644738
202298604,1.205544
202348805,1.904266
202399026,1.868011
202451899,1.820426
202510847,1.758389
202564770,1.880902
202613951,1.639098
202664665,1.886541
202762284,1.783365
202811765,1.59398
202859664,1.786587
202910962,1.544028
202962916,2.560238
203011672,1.266825
203060993,1.893793
203113000,1.742275
203163337,1.967109
203215399,1.71891
203266979,1.868011
203318608,1.793033
203370016,1.716493
203420577,1.756777
203472989,1.498911
203578840,1.537583
203631645,1.714882
203687148,1.29019
203740127,1.71891
203791837,1.593175
203852785,1.586729
203905873,2.233838
203959301,2.062179
204011893,1.807535
204065703,2.119432
204117401,1.975972
204169465,1.732607
204222948,0.6865873
204276789,0.0136965
204331115,0.01047379
204431157,0.01047379
204484759,0.01530785
204540151,1.687489
204593816,1.743886
204650363,1.701991
204704849,1.975972
204757699,2.02109
204810676,2.380522
204866564,3.080806
204920625,3.223461
204976610,3.254076
205038575,3.239574
205096927,0.01289082
205152323,0.01127947
205208961,0.01047379
205317468,0.01127947
205371575,0.01289082
205425571,0.01289082
205481393,0.01208515
205538691,0.008862439
205593776,1.680238
205648307,1.661707
205705006,1.072607
205761797,0.01127947
205817683,0.574548
205874058,0.06364843
205928721,1.519052
205983962,3.221849
206039185,3.252465
206094347,3.252465
206199200,3.255688
206256610,3.254076
206316629,3.255688
206374017,3.254076
206428004,3.252465
206491930,3.253271
206547939,3.120334
206606875,3.253271
206666097,1.429572
206724102,1.678627
206778800,1.675404
206834292,2.61583
206892314,3.245214
206950617,3.250854
207008534,3.253271
207123005,2.402275
207179355,1.610094
207239042,0.5672969
207298932,0.66
207360336,0.5640741
207419659,0.5479607
207477186,0.5890501
207534850,0.6809475
207593833,0.85019
207652813,0.8808057
207714440,1.025022
207782245,1.236965
207844627,1.517441
207902511,1.435212
207961733,3.217015
208069749,1.747915
208126948,1.8664
208214057,1.956635
208256198,1.977583
208293924,1.997725
208332237,1.996114
208372183,1.988862
208410759,1.934882
208450778,1.873651
208492008,1.861565
208529942,1.847013
208568526,1.948579
208607101,1.9091
208647271,1.768862
208686409,1.869622
208779445,1.99853
208823032,2.004976
208863829,2.003365
208902642,1.968721
208951368,1.913129
208991763,1.861565
209033996,1.905072
209076563,1.950996
209117637,1.897821
209157503,1.842985
209198116,1.839762
209238527,1.818814
209278377,1.805118
209318857,1.943745
209360977,1.873651
209449235,1.892987
209492611,1.151563
209535014,1.859149
209578736,1.941328
209620402,1.95583
209661337,1.907489
209703116,1.865594
209745661,1.802701
209787742,1.768862
209831758,1.822843
209881912,1.774502
209927592,1.651234
209968732,1.622179
210010457,1.654456
210053200,1.744692
210149165,1.585118
210192377,1.54564
210237192,1.378009
210280532,1.820426
210322658,1.8664
210367141,1.830899
210408673,1.805923
210451687,1.897821
210495034,1.954218
210536884,1.967915
210579378,1.98
210623403,1.893793
210666497,1.79545
210712666,1.818814
210756066,1.809146
210851928,1.732607
210897014,1.651234
210939092,2.062179
210991546,1.342559
211035997,2.049288
211083910,2.207251
211130482,2.361991
211176034,2.486922
211219053,2.488533
211263098,2.344266
211308705,2.440142
211355028,2.585214
211401684,2.546542
211449555,2.432891
211492836,2.461089
211593662,2.162939
211642499,2.150048
211691382,1.482797
211737257,2.003365
211781368,1.947773
211826568,1.815592
211873388,1.803506
211919783,1.809952
211967847,1.655262
212023547,1.684266
212071315,1.625402
212116087,1.607677
212163092,1.513413
212210802,1.673793
212255771,1.655262
212353023,3.171897
212402578,1.502939
212449301,1.621373
212493647,1.726967
212540944,1.646349
212586575,1.610094
212636352,1.689101
212684233,1.607677
212729744,1.626207
212775852,1.597203
212822591,1.452181
212869524,1.442463
212918138,1.726162
212966838,1.401373
213019489,1.640709
213119363,1.776114
213167110,1.78417
213223512,1.773697
213272748,1.858343
213322110,1.751138
213370248,1.805118
213421791,1.771279
213468525,1.750332
213516908,1.806729
213566742,1.71891
213615349,1.971138
213666300,1.677015
213716008,1.783365
213763581,2.494978
213815408,1.863177
213914519,1.971138
213966272,1.826066
214017518,1.859954
214066538,1.685072
214116256,1.79545
214167581,1.664124
214220006,1.652845
214272191,1.70602
214332916,1.851041
214385767,1.602843
214435559,1.70038
214488482,1.950996
214539892,1.722939
214588809,1.760806
214642167,1.70038
214749259,1.70038
214801181,1.652845
214850002,1.726162
214902652,1.647961
214953773,1.751138
215006518,1.606871
215060399,1.734219
215111111,1.62943
215162199,1.510996
215212443,2.514314
215262572,1.558531
215315402,1.776919
215366106,1.718105
215423006,1.70038
215473675,1.864788
215571007,1.883319
215631453,1.847819
215683556,1.701991
215736683,1.739858
215790299,1.923603
215843196,1.577867
215895618,1.906683
215948106,1.241044
216001959,1.763223
216054425,1.897821
216108281,1.846207
216164470,1.838151
216218790,1.833316
216272680,1.927631
216328285,1.809146
216437907,1.753555
216494951,1.897015
216548623,1.652039
216604429,1.639098
216659989,1.173316
216715044,1.793838
216771437,1.829288
216835776,1.766445
216892986,1.797061
216948956,1.723745
217005970,1.713271
217061446,1.637487
217115928,1.715688
217172721,1.768862
217233127,1.745498
217336817,3.119529
217390224,1.684266
217447277,1.709242
217502573,1.614122
217559350,1.609288
217615819,1.677821
217670879,1.762417
217726326,1.720522
217781761,1.65929
217836249,1.739052
217891623,1.906683
217949268,1.725356
218010998,1.919574
218068788,1.267631
218125205,1.631041
218245981,1.827677
218303303,2.061373
218362491,2.0509
218420330,1.899432
218478620,1.817203
218535184,1.908295
218591797,2.02109
218651586,1.498105
218710138,1.840568
218767583,0.6720852
218826540,0.4319432
218885120,0.01289082
218943749,0.01289082
219004048,0.0136965
219065766,0.01127947
219174066,0.01047379
219229895,0.009668117
219287140,0.01127947
219346606,0.01047379
219405808,0.01047379
219466354,0.01450217
219532640,0.4335546
219593977,0.6398582
219684560,0.9315633
219725237,1.27891
219763237,1.615734
219803472,1.813175
219846140,2.037203
219885646,2.076731
219922306,2.232227
220016790,1.763223
220055482,1.768057
220095986,1.30872
220136409,1.942939
220173979,2.184692
220212730,2.220142
220253561,2.237867
220292701,2.383744
220333312,2.262843
220374430,2.063841
220419444,1.880902
220460625,1.854264
220500655,1.742275
220549658,1.809146
220591137,1.806729
220681780,1.574644
220722888,1.636681
220766135,3.212181
220804153,1.207961
220844608,1.788199
220886351,1.918769
220928771,2.02109
220971408,1.961469
221014113,1.981611
221056084,1.903461
221098161,1.835733
221140755,1.885736
221185937,2.038009
221228552,2.038814
221268786,1.996114
221362550,1.751943
221404377,1.668153
221446045,2.075926
221490466,1.268437
221541313,1.775308
221586069,1.837345
221630626,1.830899
221675269,1.658485
221716120,1.584312
221759546,1.360284
221805994,1.388482
221847813,1.2491
221887428,1.144312
221930510,1.052465
221973082,0.9299519
222063549,0.7864912
222109329,0.6914214
222152212,1.025022
222194364,0.1925566
222237552,0.8703319
222280950,1.066967
222325793,1.228908
222369478,1.239432
222418534,1.136255
222465540,1.26038
222508730,1.374786
222561781,1.272465
222606707,1.418293
222651603,1.475546
222695566,1.502133
222793917,1.716493
222838395,1.626207
222884764,3.237157
222929754,1.801895
222975415,1.99853
223021351,2.097679
223068179,2.261231
223114370,2.163744
223162042,2.076731
223209698,2.177441
223258949,2.001753
223305854,2.074314
223351198,2.032369
223396889,1.876068
223444187,1.955024
223540862,1.766445
223590973,1.92602
223646095,1.452987
223694969,1.796255
223742246,1.829288
223790933,1.889764
223836833,1.723745
223886136,1.84379
223934264,1.728579
223982053,1.763223
224025918,1.851041
224071483,1.744692
224117740,1.577061
224165120,1.764028
224212248,1.815592
224311419,1.606065
224358403,3.064692
224405538,1.633458
224452511,1.672987
224501194,1.672987
224550525,1.723745
224604602,1.757583
224653009,1.644738
224700888,1.620568
224757361,1.593175
224807371,1.699574
224857763,1.523886
224907418,1.721328
224956624,1.665736
225005471,1.693129
225101480,2.665782
225153280,1.614122
225202940,1.748721
225251116,1.816397
225303643,1.782559
225352302,1.738247
225402676,1.701991
225454720,1.653651
225508379,1.722939
225559881,1.442463
225611416,1.401373
225661327,1.327251
225712769,1.357061
225765367,1.299858
225819242,2.887393
225932883,1.543223
225986127,1.753555
226039169,1.595592
226090464,1.678627
226140763,1.594786
226193359,1.582701
226248046,1.672987
226298754,1.487631
226349605,1.551279
226403980,1.656873
226455179,1.338531
226508091,1.506967
226560620,1.103223
226611386,1.615734
226662704,1.78417
226762119,1.768862
226813530,1.639098
226865690,1.808341
226916158,1.620568
226972532,1.577867
227025474,1.706825
227077899,1.547251
227137385,1.562559
227191432,1.497299
227244998,2.810854
227298520,1.587535
227351647,1.658485
227403524,1.799478
227456027,1.596397
227509894,1.693129
227617659,1.618956
227672678,1.591563
227728922,1.644738
227782349,1.693934
227837251,1.75436
227893759,1.597203
227952842,3.01474
228007556,1.804312
228061131,1.842179
228115356,1.701186
228172592,1.701186
228228674,1.708437
228286569,1.757583
228348971,1.650428
228406769,1.688295
228508633,1.647155
228564861,1.840568
228617607,1.452181
228675376,2.9664
228733316,1.252323
228789785,1.363507
228844836,1.489242
228901720,1.519858
228957275,1.405402
229014321,1.431989
229070997,1.498911
229125965,1.610899
229181485,1.632653
229235903,1.582701
229291495,1.650428
229400065,3.200902
229457999,1.768057
229520732,1.93891
229578755,1.885736
229633610,1.768862
229698040,1.769668
229755210,1.76564
229814477,1.643932
229872206,1.640709
229930488,1.638292
229985530,2.051705
230042132,1.945356
230100933,2.014644
230157035,1.452987
230216215,1.851041
230324934,1.883319
230381947,1.885736
230440815,1.770474
230501033,1.73019
230560439,1.652039
230617354,1.526304
230673118,1.536777
230731897,1.424738
230791431,1.270854
230852257,0.8122728
230914141,1.438434
230981407,1.631847
231041896,1.598814
231131739,1.399762
231169664,1.468295
231265123,1.502939
231304503,1.523886
231344245,1.532749
231380741,1.683461
231420938,1.633458
231459502,1.51019
231498890,1.547251
231538635,1.27891
231575897,1.523081
231614496,1.537583
231653268,1.567393
231691950,1.544028
231732584,1.547251
231773497,1.614122
231818267,1.679432
231911573,1.569004
231958436,1.67057
231999769,1.658485
232042066,1.710854
232082931,1.893793
232124345,1.571421
232162280,1.651234
232203940,2.963177
232245172,1.477963
232287195,1.589146
232327866,1.582701
232366789,1.650428
232409244,1.513413
232449342,1.441657
232492715,1.374786
232590538,1.357061
232633870,1.359478
232674994,1.393317
232715865,1.43924
232757039,1.663319
232801150,1.435212
232845176,1.299858
232888771,0.9605676
232939101,1.601231
232983683,1.560142
233026543,1.549668
233067232,1.519052
233112135,1.52872
233157376,1.631847
233198171,1.672181
233285675,1.573033
233329493,1.493271
233372023,1.498105
233415797,1.725356
233459372,1.830094
233501265,1.647155
233543747,1.547251
233586617,0.9573449
233629765,1.56981
233672639,1.727773
233717848,1.884124
233763266,1.793838
233805429,1.717299
233858413,1.780142
233903659,1.718105
234003363,1.652845
234048325,1.497299
234095413,1.627013
234139328,1.828483
234183376,1.43924
234230176,1.307109
234276420,1.802701
234321295,1.524692
234366002,1.40379
234412436,1.42071
234456810,1.540806
234502752,1.509384
234550374,1.396539
234599234,1.614928
234647531,1.405402
234740646,1.557725
234785868,1.40943
234835679,1.758389
234883536,1.408624
234931488,1.353838
234986314,0.9355916
235035042,1.652039
235083443,1.593175
235129232,1.428766
235176588,1.05891
235225442,0.6059693
235271330,0.5141222
235317573,0.6978668
235365618,0.5503777
235412105,0.6446921
235514668,1.015354
235562816,0.9106157
235609293,0.9396201
235656002,2.48531
235702824,1.280522
235749710,1.324834
235798037,1.655262
235846955,1.477963
235899578,1.800284
235948445,1.660902
236003889,1.797061
236051420,1.800284
236102907,1.758389
236151707,1.747915
236200106,1.967109
236295123,1.726162
236343498,2.898723
236393301,1.699574
236441660,1.726162
236492500,1.702797
236541403,1.608482
236591914,1.631041
236640396,1.607677
236692174,1.607677
236743814,1.447347
236795551,1.581895
236846585,1.341753
236897491,1.667347
236946786,1.236159
236999555,1.48602
237107386,1.436017
237160992,1.590758
237220706,1.588341
237274985,1.685878
237327752,1.463461
237376582,1.76
237430890,1.631041
237485380,1.498105
237537006,1.70602
237585456,1.689906
237637682,1.621373
237689176,1.606065
237741938,1.056494
237795633,1.716493
237845243,1.519052
237943312,1.535972
237993207,1.653651
238044220,1.522275
238098302,1.734219
238151375,1.639098
238206036,1.486825
238257732,1.71891
238319443,1.697963
238372780,1.646349
238426982,2.573129
238479856,1.614122
238533244,1.759194
238583767,1.616539
238635682,1.805923
238689299,1.654456
238795981,1.739052
238850383,1.63507
238903246,1.486825
238959216,1.613317
239011273,1.775308
239065146,1.392511
239120685,1.592369
239177722,1.30872
239232250,1.806729
239285072,1.681044
239338802,1.756777
239394154,1.85507
239452225,1.778531
239509779,1.774502
239572637,1.758389
239677858,1.666541
239733038,1.924408
239787022,1.470712
239841595,2.376493
239900268,1.519858
239956153,1.708437
240010629,1.693129
240067019,1.527915
240121864,1.510996
240178587,1.613317
240236303,1.708437
240290881,1.680238
240346006,1.519858
240401028,1.606871
240455294,1.620568
240568853,1.191041
240625914,1.574644
240686987,1.653651
240744327,1.557725
240808693,1.73583
240864453,1.59398
240921294,1.627013
240977757,1.674598
241036073,1.681044
241092354,1.8664
241148719,1.580284
241206299,1.508579
241262711,0.9911834
241319675,1.603648
241376686,1.736635
241485078,1.611705
241543087,1.553697
241602907,1.624596
241662392,1.579478
241723459,1.538389
241782383,1.627819
241839819,1.490854
241899024,1.969526
241959569,1.517441
242019897,1.628624
242081404,1.657679
242147282,1.773697
242209619,1.793838
242270074,1.829288
242327878,1.715688
242444200,1.570616
242504187,1.683461
242561059,1.43924
242621137,2.059762
242709186,1.78981
242749563,1.761611
242790243,1.729384
242828105,1.666541
242866000,1.56981
242904253,1.458627
242942394,1.463461
242982232,1.473129
243022459,1.448958
243065504,1.499716
243102502,1.382037
243198105,1.324834
243236906,1.427155
243276946,2.665782
243318909,1.128199
243359668,1.624596
243399131,1.685072
243438367,1.737441
243479276,1.63507
243520607,1.581089
243562459,1.542417
243602449,1.519858
243644171,1.59962
243683713,1.494076
243726366,1.478769
243767478,1.453793
243866878,1.47474
243907321,1.27891
243947812,1.257963
243988450,1.725356
244030736,1.581089
244074115,1.596397
244117259,1.553697
244167193,1.704408
244211018,1.812369
244254599,1.779336
244294679,1.842985
244337189,1.963081
244382701,1.966304
244425329,1.887347
244466736,1.895404
244556643,1.768862
244600622,1.527915
244645318,1.899432
244686541,1.152369
244727498,1.887347
244769310,1.98
244812971,1.937299
244856364,1.753555
244900375,1.685878
244948077,1.85507
244992249,1.829288
245043918,1.725356
245089744,1.788199
245135495,1.577867
245178975,1.539194
245279685,1.622985
245320306,1.497299
245365552,1.89621
245411924,1.152369
245457307,1.552085
245501155,1.586729
245543336,1.703603
245591761,1.757583
245635147,1.644738
245680261,1.557725
245727063,1.780948
245773700,1.65929
245818337,1.490048
245862644,1.563365
245907325,1.672181
246001604,1.708437
246048927,1.622179
246097509,1.42071
246151277,1.200709
246200495,1.51583
246246515,1.722939
246291505,1.650428
246338051,1.447347
246386620,1.687489
246432327,1.585924
246477780,1.518247
246523566,1.661707
246569346,1.667347
246616064,1.414264
246661506,1.512607
246762591,1.53436
246808370,1.744692
246854262,0.9243122
246901881,1.50455
246949710,1.663319
247000334,1.499716
247046205,1.70038
247102739,1.652845
247150675,1.686683
247199388,1.611705
247247372,1.775308
247296482,1.531943
247343584,1.738247
247392270,1.834928
247440683,1.622179
247537633,3.167063
247586977,1.858343
247632955,1.764028
247681990,1.817203
247729080,1.812369
247777996,1.664124
247826657,1.863177
247878402,1.679432
247928737,1.836539
247977083,1.570616
248027487,1.710854
248077804,1.564976
248130848,1.868011
248183191,1.690712
248241166,3.196068
248349895,1.710854
248399947,1.643932
248448010,1.704408
248498531,1.584312
248550565,1.606065
248601301,1.674598
248648159,1.600426
248698049,1.361895
248749431,1.405402
248800449,1.419098
248849847,1.60526
248899869,1.270048
248949826,1.193458
248999698,0.5407095
249051977,1.170094
249151085,1.188624
249206989,1.309526
249257539,1.137061
249316359,1.2136
249366753,1.389288
249421792,1.34981
249475628,1.190236
249529648,1.371563
249580725,1.650428
249631864,1.312749
249686055,2.607773
249739018,1.364312
249792578,1.506162
249844320,1.816397
249899208,1.747109
250004832,1.812369
250059446,1.812369
250113805,1.498105
250169926,1.468295
250223999,1.716493
250276155,1.581089
250328525,1.421515
250384081,3.179954
250439198,1.66493
250496793,1.622179
250556335,1.569004
250613296,1.413458
250668739,1.470712
250721431,1.747915
250776252,1.569004
250881523,1.657679
250936001,1.540806
250988805,1.166871
251042671,1.373175
251098257,0.6318013
251154936,0.9976288
251208522,1.039574
251264376,1.268437
251317535,1.345782
251372291,1.216823
251428500,1.338531
251484604,1.565782
251543714,1.67621
251596554,1.703603
251660805,1.863983
251770899,1.356255
251828516,1.67621
251883938,1.838956
251942230,1.801089
251994628,1.530332
252049847,1.265214
252106502,1.410236
252163750,1.554502
252222480,1.555308
252278247,1.493271
252337281,1.606065
252394336,1.138672
252452913,1.863983
252509926,0.497203
252569966,0.5382925
252674354,0.7760174
252730724,0.8413276
252787146,1.066162
252844867,1.318389
252904232,1.448153
252964684,1.291801
253030522,1.041991
253091681,0.7969649
253151271,0.7558755
253208153,0.0136965
253266460,0.4351659
253326290,0.6616113
253385233,0.827631
253442724,1.021799
253499566,0.9968231
253613283,0.8429389
253672244,0.8775829
253729648,0.8719432
253787488,1.084692
253845303,1.211989
253902071,2.738343
253962059,1.013742
254021091,1.27891
254083492,1.007297
254142618,0.5761593
254238575,0.0136965
254279397,0.01047379
254318697,0.1160174
254360035,1.006491
254397339,1.007297
254484446,0.2393362
254525741,0.01208515
254565999,0.0136965
254604871,0.01047379
254643850,0.008862439
254684543,0.007251087
254722922,0.009668117
254765044,0.01289082
254806870,0.01208515
254850312,0.4681987
254889766,0.9839323
254929278,1.495688
254968951,1.909906
255010013,2.258814
255050807,2.514314
255151823,3.087251
255201521,3.217821
255244473,2.963983
255287082,3.105832
255328792,2.887393
255371227,2.833413
255414687,3.040522
255456607,3.046967
255497109,2.937395
255537950,2.872085
255578703,2.778627
255621267,2.595688
255660972,2.504646
255701809,2.317679
255742810,2.093651
255831774,1.910712
255874871,2.121044
255918005,2.0509
255961233,1.776114
256001397,1.894598
256051445,1.29583
256093491,1.98
256136388,2.115404
256179912,2.040426
256219989,1.98
256263694,1.851041
256306926,1.747915
256351003,1.872845
256395137,2.018672
256437845,1.936493
256537987,1.834122
256581535,1.701991
256626855,1.679432
256672711,1.652845
256720067,1.622985
256763413,1.000851
256806839,1.487631
256852237,1.730996
256897265,1.833316
256944980,1.485214
256992501,1.747915
257045249,1.511801
257092017,1.776114
257138656,1.850236
257182377,1.595592
257275050,1.818814
257319885,1.788199
257364867,1.471517
257406649,1.352227
257451311,1.847013
257495992,1.220046
257543346,1.51019
257587801,1.552085
257632489,1.806729
257677431,1.816397
257722221,1.645544
257768753,1.602037
257815585,1.893793
257866391,1.539194
257912398,1.73019
258019990,1.2491
258068242,1.109668
258115156,1.69474
258162549,0.9654017
258208486,0.3029847
258256223,1.291801
258303466,1.039574
258351434,3.252465
258399577,1.828483
258446127,1.685072
258494362,1.67621
258540291,3.233129
258587989,3.24602
258637110,0.01047379
258686499,0.009668117
258780683,0.01047379
258827685,1.685878
258876898,1.65929
258925334,1.422321
258975146,0.01289082
259026353,0.01127947
259082947,0.01127947
259134832,0.01047379
259183540,0.01127947
259230155,0.0136965
259279325,0.01127947
259329080,0.01047379
259378036,0.01127947
259423725,0.009668117
259472621,0.01289082
259578293,0.01047379
259628340,0.01047379
259676664,0.01047379
259725557,0.01450217
259774504,0.0136965
259823415,0.01127947
259875554,0.009668117
259926834,0.01047379
259980720,0.8413276
260029762,0.008862439
260087330,1.693934
260139983,1.658485
260191204,1.664124
260245569,1.485214
260293891,3.252465
260392806,3.257299
260444364,3.254076
260496455,3.252465
260548573,3.254882
260599393,3.252465
260653286,3.254882
260703327,3.257299
260755528,3.254076
260809250,3.254076
260864162,3.250854
260915310,3.249242
260966490,2.765736
261019813,1.818814
261073936,0.5455436
261128026,0.01047379
261240030,0.01047379
261300747,0.01127947
261356735,0.01450217
261411005,0.01127947
261462973,0.01047379
261517283,0.01289082
261570672,0.009668117
261622719,0.01127947
261675114,0.009668117
261727855,0.01127947
261781996,0.0136965
261834827,0.01208515
261887175,0.01208515
261939019,0.1297139
261991684,0.6616113
262094308,1.131421
262148677,1.361089
262204051,1.383648
262263151,1.315972
262318797,1.892181
262381178,1.476351
262437907,1.733413
262494746,1.895404
262551938,1.821231
262606136,1.595592
262662142,1.448958
262717819,1.457015
262772148,1.609288
262828488,1.517441
262883395,1.309526
262997915,2.243506
263052331,1.601231
263108420,1.602037
263166248,1.500522
263225446,1.497299
263280894,1.477157
263335973,1.768057
263393197,1.864788
263453076,1.818814
263509777,1.768057
263569243,1.815592
263634055,1.655262
263692813,1.228908
263751198,1.78981
263807059,1.721328
263911103,1.768862
263967667,1.698769
264025512,1.673793
264079212,1.398956
264135938,1.311138
264194244,1.328057
264252096,1.430378
264308308,1.270854
264364990,1.493271
264420900,0.7550698
264478611,1.171705
264536999,1.342559
264595242,1.445736
264655758,1.40379
264713397,1.550474
264835720,1.416681
264896055,1.392511
264955002,1.488437
265015914,1.501328
265073914,1.000046
265133482,0.8058273
265192625,0.3247379
265252489,0.9065874
265310876,1.118531
265369492,1.261991
265429609,1.465072
265519959,1.381231
265560843,1.37398
265602911,1.44493
265641271,1.451376
265726661,1.821231
265765000,1.799478
265806781,2.009004
265849126,1.984834
265891561,1.89621
265940122,3.232323
265983323,1.651234
266023127,1.89057
266061102,1.871234
266110138,2.092039
266151470,2.037203
266191263,2.050094
266229040,2.027535
266268513,2.024312
266309710,2.024312
266405788,1.818009
266444984,1.794644
266486489,1.900238
266526173,1.943745
266567763,2.115404
266609002,1.854264
266650858,1.806729
266696763,2.266871
266738855,1.494076
266788423,1.859149
266831863,1.78417
266873718,1.652845
266917577,1.531943
266956516,1.589146
266997333,1.543223
267087672,1.829288
267130387,1.73019
267172008,1.638292
267213358,1.581089
267258050,1.471517
267301151,1.678627
267345596,1.727773
267392566,1.594786
267433629,3.222655
267474436,1.277299
267518227,1.62379
267562371,1.800284
267607332,1.953413
267652086,1.826066
267702399,1.81398
267805252,1.886541
267848572,1.847013
267890909,1.728579
267935439,1.513413
267979954,1.536777
268024522,1.86076
268068054,1.873651
268112451,1.552085
268157464,1.743886
268202045,1.085498
268245308,1.796255
268288821,1.798673
268332498,1.644738
268376086,1.447347
268421418,1.614122
268515053,1.482797
268562359,1.651234
268606807,1.714076
268659324,1.4691
268704786,1.681044
268750634,1.645544
268797331,1.548057
268840365,1.502133
268886664,1.788199
268932872,1.030661
268979441,1.589146
269025712,1.874456
269070246,1.755972
269117788,1.561753
269165641,1.863177
269267536,1.82526
269317036,1.519858
269362740,1.725356
269408508,1.702797
269454311,1.496493
269501790,1.842985
269550373,1.679432
269598695,1.457015
269653655,2.637583
269705338,1.679432
269752576,1.463461
269798864,1.523886
269845727,1.689906
269895088,1.429572
269941284,1.602843
270034436,1.458627
270081408,1.642321
270130060,1.535166
270179771,1.519052
270226367,1.642321
270273465,1.473129
270321595,1.571421
270368630,1.550474
270416402,2.177441
270464658,1.799478
270516628,1.63507
270564983,1.912323
270620715,1.811563
270671488,1.66493
270721082,1.800284
270829446,1.689101
270878049,1.619762
270926729,1.751138
270976622,1.557725
271027162,1.865594
271076513,1.525498
271123833,1.743886
271176279,1.271659
271227125,1.790616
271277481,1.697157
271331943,1.614122
271383211,1.891376
271431762,1.602037
271482308,1.847013
271533641,1.577867
271636091,1.761611
271688947,1.95583
271749125,2.079149
271802396,2.486116
271852646,1.959052
271902799,2.610996
271957489,1.697963
272008236,1.936493
272060215,1.987251
272110853,1.650428
272161797,1.885736
272214466,1.47474
272266754,1.584312
272317186,1.40943
272368208,1.299858
272475473,1.102417
272526504,1.265214
272579260,1.181373
272630698,0.9412313
272686368,0.5914671
272738244,1.32564
272797594,1.362701
272852122,1.210378
272904798,1.513413
272961207,1.548057
273013473,1.302275
273066502,1.3909
273119181,1.386065
273173348,1.143506
273227908,1.170094
273325939,1.375592
273381094,1.797867
273435205,1.275688
273490416,1.870428
273549532,1.913129
273602506,2.071092
273655466,1.962275
273708562,1.762417
273763659,1.871234
273821550,1.798673
273879332,1.447347
273942382,1.356255
274002210,1.400568
274058887,0.3803296
274112734,0.009668117
274223798,0.008862439
274281135,0.009668117
274336894,0.009668117
274391424,0.008862439
274446272,0.01208515
274501970,0.551989
274558116,0.9605676
274611942,1.171705
274666830,1.548862
274723708,1.95583
274778944,1.955024
274835482,2.054928
274890815,1.688295
274951957,2.698865
275009332,2.902751
275122958,3.114694
275179685,3.086445
275236774,2.917253
275295571,2.567489
275350060,2.036397
275407825,1.725356
275465393,1.794644
275523603,1.558531
275582198,3.134836
275637174,1.75436
275695578,1.78981
275754049,1.769668
275811113,1.73583
275871927,1.684266
275928962,1.686683
276041088,1.820426
276099871,1.82526
276157892,1.863983
276218113,2.020284
276278433,1.808341
276345130,1.485214
276406304,1.745498
276464338,1.813175
276521681,1.842985
276579999,1.838956
276639325,1.737441
276700342,1.780142
276758545,1.741469
276818640,1.660902
276877701,1.616539
276984316,1.709242
277071760,1.442463
277108944,2.142797
277146715,1.506967
277187050,1.613317
277226959,1.697157
277270882,1.780142
277307605,1.725356
277355169,1.870428
277395524,1.808341
277434549,1.763223
277475332,1.747915
277512448,1.620568
277551838,1.581895
277591460,1.564976
277690299,1.573838
277731610,1.812369
277770617,1.484408
277810952,1.544834
277853330,3.027631
277895582,1.616539
277939389,1.807535
277979320,1.868011
278018990,1.90185
278058883,1.902655
278100468,1.847013
278144573,1.63507
278189895,1.672987
278239389,1.808341
278284376,1.594786
278373243,1.651234
278412736,1.716493
278455081,1.84379
278498565,1.655262
278538307,1.583507
278577441,2.141186
278618703,1.615734
278661365,1.66493
278706709,1.602843
278746867,1.621373
278789839,1.661707
278832948,1.696352
278876180,1.698769
278919439,1.72455
278967812,1.584312
279065856,1.543223
279115293,1.736635
279159976,1.777725
279203454,1.502939
279246184,1.476351
279287672,2.970428
279331544,1.236159
279375376,1.749526
279419387,1.722133
279462260,1.619762
279505793,1.552085
279552503,1.712465
279597613,1.661707
279641329,1.589952
279690048,1.588341
279783498,1.465878
279827152,1.466683
279872710,1.72455
279917009,1.826066
279963448,1.415876
280011237,1.683461
280064171,1.098389
280110271,1.671376
280154913,1.801895
280199187,1.720522
280245272,1.566587
280294078,1.787393
280340267,1.652845
280383107,1.62379
280428801,1.669764
280529841,1.642321
280575857,1.738247
280619950,1.644738
280664899,1.692323
280709950,1.697963
280756540,1.656873
280803664,3.105026
280854725,1.697963
280900608,1.660096
280954693,1.840568
281003211,1.642321
281050227,1.780142
281099341,1.657679
281145435,1.616539
281192340,1.797867
281287053,1.369952
281334209,1.421515
281380832,1.236965
281427526,1.265214
281476515,1.482797
281526030,1.238627
281575615,1.419904
281627885,1.276493
281675041,1.515024
281722063,1.407819
281771156,1.654456
281821427,1.553697
281871557,1.815592
281921215,1.643932
281976829,1.858343
282082842,1.610094
282131347,1.792227
282178809,1.650428
282227205,1.716493
282278337,1.678627
282328265,1.618151
282375183,3.200096
282425906,1.51583
282476159,1.809146
282525218,1.718105
282573923,1.760806
282621822,1.596397
282672573,1.769668
282723053,1.600426
282771112,1.781753
282872872,1.732607
282923857,1.556919
282980494,1.654456
283031266,1.859954
283080546,1.561753
283131977,3.229906
283179993,1.43924
283231578,1.899432
283283027,1.740664
283336527,1.792227
283388688,1.822037
283437418,1.627819
283489750,1.737441
283542691,1.511801
283594350,1.622985
283705342,1.412653
283757993,1.602037
283808910,1.560142
283859173,1.365924
283912423,2.44981
283964767,1.436017
284019822,1.463461
284078428,1.495688
284134345,1.63507
284188588,1.646349
284239082,1.51583
284292082,1.744692
284345700,1.651234
284396213,1.643932
284448238,1.767251
284548698,1.882513
284601566,1.527915
284654321,1.615734
284706435,1.609288
284760391,1.548057
284811771,1.780948
284865799,1.70602
284920180,1.573033
284977276,1.566587
285030363,1.743081
285092615,1.712465
285147403,1.652845
285201771,1.463461
285255769,1.556919
285309513,1.780142
285419581,1.3909
285473930,1.244266
285529538,1.76
285584734,1.693129
285638333,1.589146
285696271,1.664124
285751611,1.728579
285808890,1.713271
285867219,1.647155
285923572,1.471517
285977925,1.378009
286032538,1.508579
286089130,1.645544
286145418,1.405402
286204267,1.584312
286316499,1.35545
286376171,1.388482
286434212,1.457015
286488361,1.606065
286545125,1.556919
286600951,1.489242
286655355,1.51019
286710198,1.635875
286767909,1.679432
286823532,1.615734
286882339,1.696352
286938529,1.455404
286996554,3.186399
287052679,1.696352
287110305,1.84379
287223712,1.753555
287283739,1.640709
287341230,1.583507
287405884,1.60526
287466779,1.466683
287524016,1.332891
287581359,1.237821
287638370,1.30872
287696874,1.089526
287755624,3.036494
287816394,1.207155
287875999,1.36834
287933955,1.446541
287994825,1.464266
288054318,1.428766
288162314,1.510996
288224217,1.510996
288284141,1.163648
288341006,0.8211353
288400846,0.7494301
288459715,0.7607095
288518163,0.4287205
288616156,1.058105
288658550,1.199098
288696776,1.268437
288734920,1.3909
288776165,1.397345
288815979,1.468295
288855547,1.574644
288892283,1.693934
288985392,1.829288
289025642,1.844596
289065635,1.856732
289103308,1.924408
289143803,1.873651
289182795,1.753555
289223476,1.92038
289264526,1.309526
289309266,1.826871
289348949,1.828483
289396979,1.584312
289440530,1.620568
289481508,1.689101
289525529,1.755166
289565473,1.772891
289654102,1.589146
289693563,1.571421
289735485,1.567393
289778904,1.608482
289818838,1.634264
289861757,1.845402
289903620,1.781753
289946921,1.742275
289991691,3.228295
290034248,1.315972
290075157,1.725356
290117890,1.776919
290160562,1.856732
290204092,1.89057
290254402,1.696352
290353919,1.531943
290396833,1.485214
290440122,1.516635
290484678,1.583507
290527807,1.51583
290571013,1.397345
290613033,1.330474
290657463,1.228103
290700138,1.286967
290744023,3.112277
290786132,1.065356
290829020,1.389288
290870424,1.402179
290914075,1.342559
290958291,1.44493
291051334,1.477157
291096131,1.53436
291146298,1.744692
291192215,1.556113
291236748,1.560142
291281820,1.751138
291325299,1.78417
291367962,1.815592
291411969,1.589146
291456622,1.544834
291500661,2.883365
291542134,1.347393
291589559,1.717299
291636269,1.697963
291681458,1.867205
291782327,1.842179
291826939,1.786587
291871623,1.636681
291916256,1.643932
291962628,1.756777
292010135,1.518247
292064236,1.692323
292113576,1.581895
292159405,1.749526
292203518,1.638292
292251598,1.73019
292299704,1.048437
292345510,1.582701
292391145,1.494076
292437037,1.602843
292531589,1.624596
292580085,1.746303
292625915,1.787393
292671678,1.569004
292717544,1.583507
292765109,1.585118
292812981,1.452181
292863476,1.719716
292908268,1.658485
292963925,1.614122
293012061,2.70531
293058224,2.031563
293105753,3.15659
293152502,3.236351
293199456,3.247631
293303257,1.958247
293352249,1.342559
293400464,1.479574
293447074,1.573838
293496335,1.963886
293546506,2.353129
293596721,1.395734
293649783,0.7615152
293699006,0.6914214
293746653,1.119336
293796929,0.4367773
293846867,0.8163012
293896508,0.6342183
293953302,0.4004715
294006451,0.6865873
294105066,1.014548
294152751,1.164454
294204680,1.282939
294256490,1.009714
294305962,1.283745
294355116,0.5898558
294404657,0.2103319
294455727,0.01127947
294506526,1.494882
294557051,0.8590524
294608543,1.21924
294659886,2.266065
294711357,2.345072
294762896,2.385356
294817233,1.895404
294921709,1.208766
294979417,1.163648
295030768,1.007297
295080774,1.280522
295133427,1.427961
295183936,1.315972
295236177,1.333696
295288549,0.5906615
295342592,1.398151
295394788,1.451376
295443474,1.535972
295495657,1.646349
295548015,1.434406
295602079,1.609288
295658814,1.67057
295760154,1.674598
295811755,1.529526
295863584,1.70602
295916540,1.731801
295969512,1.469906
296030768,1.299858
296086485,1.573838
296140380,1.818814
296192625,1.628624
296245631,1.519858
296299236,1.65929
296351387,1.511801
296404138,1.561753
296458573,1.705214
296510254,1.505356
296620234,1.821231
296673039,1.513413
296725778,1.27891
296778664,0.9936003
296833811,1.590758
296889116,1.406207
296947192,1.252323
297001537,1.364312
297064551,1.153175
297121379,1.317583
297176806,1.386871
297232460,1.222463
297286819,1.073413
297341861,1.239432
297396782,1.551279
297500132,1.542417
297556779,1.03474
297609274,1.203932
297664853,1.235354
297721055,1.374786
297779021,1.494076
297838268,1.555308
297895509,1.661707
297950653,1.492465
298007847,1.402179
298066529,1.380426
298124881,1.431183
298188855,1.580284
298248807,1.517441
298304677,1.850236
298416619,1.905878
298473448,1.930854
298532598,1.987251
298590362,1.943745
298646891,1.812369
298704202,1.686683
298760630,1.78417
298817607,1.769668
298875904,1.867205
298932537,1.838151
298989261,1.557725
299047397,1.294218
299105960,0.8332707
299168545,1.373175
299226704,1.306304
299342311,1.412653
299402365,1.324028
299461183,2.332181
299521752,3.255688
299579616,3.254076
299636429,1.186207
299695643,0.01047379
299755478,0.0136965
299815607,0.01289082
299873932,0.009668117
299933999,0.4190524
299996449,0.5374868
300091179,0.932369
300131033,1.077441
300169036,1.137061
300262576,1.363507
300303952,1.478769
300343562,1.561753
300390973,1.942133
300434237,2.063841
300475384,2.328153
300515690,2.06948
300555871,2.092039
300595857,3.230712
300635979,1.580284
300674356,2.154882
300715442,2.168579
300754838,2.132323
300795302,2.097679
300833819,2.128295
300921255,1.782559
300959764,1.829288
301000074,1.791421
301041299,1.722133
301085504,1.743886
301123771,1.725356
301170663,2.031563
301212353,1.981611
301253721,1.868011
301296277,2.177441
301336916,1.270854
301379077,1.710048
301422705,1.751943
301464030,1.786587
301506081,1.797061
301600851,1.638292
301642661,1.634264
301686506,1.749526
301730558,1.803506
301773575,1.722939
301814724,1.660096
301857001,1.57545
301900162,1.540806
301941984,1.703603
301992698,1.702797
302037641,1.571421
302082083,0.8445502
302123936,1.548057
302166472,1.691517
302211476,1.789004
302303088,1.536777
302343474,1.481991
302387887,1.687489
302431775,1.739052
302475483,1.602843
302519620,1.43924
302562673,1.453793
302605750,1.610094
302650513,1.729384
302695504,1.779336
302741991,1.411847
302787253,1.533555
302839074,0.9218951
302885430,1.630236
302930365,1.799478
303031620,1.788199
303074657,1.728579
303120330,1.521469
303165604,1.717299
303211807,1.738247
303256521,1.523081
303301480,1.468295
303349544,1.690712
303396935,1.498911
303446829,1.702797
303493481,1.472323
303538379,1.271659
303583340,3.12678
303629993,1.511801
303679158,1.487631
303781489,1.646349
303830046,1.869622
303878024,1.587535
303923445,1.757583
303970600,1.971138
304017797,1.820426
304066494,1.895404
304112466,1.67621
304160437,1.473129
304208192,1.75436
304255493,1.341753
304303381,1.332085
304349559,3.229906
304395710,1.187819
304443441,1.438434
304545198,1.158814
304597472,0.932369
304642708,1.208766
304696748,1.162843
304746392,1.828483
304793052,1.236965
304843421,1.95583
304890705,1.515024
304938465,1.09436
304988807,1.614122
305037894,1.225685
305085713,3.225072
305133689,1.353033
305183656,1.802701
305235498,1.62379
305337132,1.40943
305386480,1.942133
305435144,2.011421
305482596,2.135546
305532794,1.946967
305583447,1.975166
305642456,1.956635
305694271,1.947773
305744268,1.867205
305793269,2.077537
305843941,1.342559
305895038,1.764028
305945887,2.096874
305995325,1.902655
306046858,2.117821
306152144,1.797061
306203734,1.873651
306253554,1.687489
306303493,1.834122
306353424,1.635875
306403905,1.891376
306454932,1.611705
306509546,1.576255
306560463,2.765736
306620128,1.530332
306673390,1.576255
306723483,1.799478
306777365,1.652039
306828397,1.747915
306879361,1.684266
306979758,1.686683
307032799,1.556113
307086083,1.756777
307137635,1.691517
307190884,1.56417
307244090,1.689101
307300842,1.291801
307352575,1.589952
307404295,1.796255
307456025,1.63507
307509436,1.695546
307564444,1.773697
307625904,1.766445
307683565,1.768057
307738973,1.615734
307846786,1.642321
307902338,1.867205
307956106,1.446541
308009348,1.722939
308061317,1.274076
308115882,1.577061
308170365,1.580284
308226205,1.703603
308280681,1.713271
308335937,1.500522
308389437,1.573838
308442943,1.726162
308498569,1.631041
308555515,1.541611
308609815,1.531943
308722993,1.934076
308780462,1.633458
308834247,2.722229
308890520,1.492465
308943168,1.768057
308996735,1.671376
309052725,1.609288
309110872,1.594786
309166967,1.669764
309221532,1.769668
309278591,1.70602
309336611,1.609288
309395052,1.572227
309451958,1.544028
309506346,1.743081
309616399,1.499716
309673511,1.104834
309730788,1.627819
309794442,1.677015
309854473,1.645544
309911400,1.509384
309967466,1.492465
310025899,1.54564
310083221,1.608482
310140878,1.667347
310195525,1.610094
310254575,1.627013
310310206,1.67621
310368131,1.586729
310426312,1.537583
310529139,1.59398
310585924,1.731801
310645881,1.75436
310702509,1.89057
310763873,1.780142
310823015,1.802701
310889074,1.595592
310947797,1.544028
311006689,1.564976
311067580,1.542417
311125401,1.689906
311184751,1.502133
311243901,1.529526
311303432,1.236159
311363529,1.67621
311474507,1.598009
311534387,1.48038
311594472,1.441657
311686517,1.452181
311724590,1.478769
311762751,1.539194
311804174,1.527915
311845258,1.519052
311892652,1.584312
311935372,1.859954
311974145,1.568199
312011666,1.477157
312051843,2.407109
312091803,1.068579
312132059,1.602037
312218026,1.821231
312258074,1.809952
312297487,1.842179
312337838,1.838956
312379053,1.832511
312417439,1.840568
312456944,1.820426
312496970,1.797061
312536660,1.774502
312581850,1.697963
312622127,1.70602
312671536,1.621373
312713481,1.78417
312753644,1.736635
312797211,1.701991
312891416,1.270048
312932200,1.718105
312974511,1.81398
313017361,1.816397
313055537,1.781753
313097368,1.775308
313139436,1.685072
313180621,1.656873
313221384,1.660096
313262576,1.619762
313305203,1.500522
313349258,1.496493
313398685,1.680238
313443394,1.558531
313485098,1.643932
313575534,1.671376
313618889,2.062179
313662173,1.091138
313705455,1.581089
313747488,1.637487
313788927,1.680238
313830129,1.697157
313872751,1.840568
313914930,1.82526
313958232,1.790616
314000433,1.729384
314044120,1.607677
314088189,1.570616
314134796,1.725356
314178905,1.685072
314280360,1.809952
314327019,1.476351
314370900,1.535972
314416790,1.122559
314460520,1.621373
314503087,1.595592
314546916,1.622985
314591296,1.739858
314635481,1.799478
314681541,1.54564
314728674,1.579478
314773389,1.739052
314817834,1.654456
314864394,1.470712
314910577,1.608482
315009187,1.710854
315061160,1.557725
315110633,1.628624
315155547,3.148533
315200567,1.582701
315247056,1.67057
315293712,1.853458
315338605,1.786587
315382542,1.695546
315429171,1.70602
315474003,1.805923
315520907,1.661707
315566849,1.672987
315619181,1.672181
315666749,1.59962
315760461,1.695546
315808063,1.647155
315855996,1.683461
315906479,3.071943
315953162,1.742275
316007186,1.687489
316056281,1.797867
316104486,1.652039
316154363,1.827677
316200510,1.544028
316248828,1.686683
316297836,1.639098
316345237,1.519858
316391926,1.691517
316441800,1.486825
316539061,1.686683
316588527,1.548862
316635998,1.883319
316685231,1.087109
316734434,1.768057
316783845,1.589146
316841268,1.582701
316894608,1.761611
316945883,1.566587
316994389,1.703603
317044661,1.544834
317094695,1.669764
317144129,1.500522
317190322,1.702797
317241350,1.59398
317338126,1.51583
317388348,3.130002
317439080,1.570616
317494165,1.787393
317545527,1.692323
317594106,1.807535
317643632,1.653651
317695301,1.65929
317748417,1.780948
317800239,1.585924
317859767,1.550474
317912963,1.72455
317964331,1.680238
318017783,1.51583
318066254,1.583507
318165941,1.660902
318218787,1.59962
318268811,1.834928
318319035,1.637487
318372637,1.780948
318427771,1.758389
318480729,1.618956
318531917,1.756777
318585075,1.639904
318637879,1.527109
318693420,1.86076
318754061,1.544834
318810105,2.905974
318862535,1.48038
318914065,1.687489
319017460,1.580284
319070800,1.727773
319124470,1.554502
319176806,1.511801
319229986,1.677015
319284102,1.562559
319337789,1.467489
319392116,1.736635
319452133,1.721328
319504569,1.656873
319557281,2.333793
319611503,1.812369
319665942,1.882513
319721729,1.788199
319773271,1.899432
319882284,1.62943
319937731,1.524692
319992983,1.564976
320049055,1.627819
320102104,1.499716
320158929,1.56981
320214814,1.367535
320271115,1.796255
320325752,1.261991
320383325,1.65929
320440429,1.610094
320495033,1.639904
320549680,1.679432
320606282,1.441657
320662610,1.365118
320769897,1.550474
320834995,1.503745
320894617,1.56981
320950892,1.640709
321005961,1.634264
321062857,1.664124
321118757,1.65929
321174104,0.009668117
321230430,0.009668117
321288013,0.01047379
321343828,1.600426
321402511,1.663319
321458667,0.684976
321521575,0.01047379
321577652,3.255688
321680952,1.683461
321738893,1.672987
321797074,1.727773
321857791,0.01289082
321916085,0.01047379
321981424,0.01127947
322039522,0.01289082
322097754,0.01289082
322157895,0.01047379
322214412,0.01047379
322272093,0.01289082
322331265,0.009668117
322390195,0.01127947
322446223,0.01127947
322507348,0.01047379
322618811,0.01530785
322675862,0.01047379
322734692,0.01127947
322794666,0.08459601
322854458,0.01289082
322915409,0.01047379
323018389,0.01047379
323059293,0.01208515
323097006,0.008862439
323136732,0.01450217
323176258,0.01047379
323216102,0.01127947
323252716,0.0136965
323292326,1.547251
323330757,1.664124
323418273,1.639904
323458720,2.975262
323505017,3.250048
323545451,3.252465
323583520,3.257299
323624227,3.255688
323666728,3.254882
323710535,3.253271
323750308,3.256494
323799140,3.255688
323840513,3.257299
323881539,3.252465
323924334,3.255688
323964181,3.255688
324004425,3.256494
324094704,3.249242
324136826,3.250048
324177485,1.556919
324221360,1.263603
324265939,0.7816572
324305897,0.411751
324346491,0.04672923
324389271,0.01047379
324431427,0.01047379
324475692,0.01289082
324520905,0.01127947
324563823,0.01047379
324604768,0.01127947
324647518,0.01127947
324689196,0.01289082
324779186,0.01127947
324819201,0.01289082
324862864,0.0136965
324903728,0.008056764
324946844,0.01127947
324990611,0.01208515
325039263,0.01208515
325083107,0.01289082
325125169,0.1716091
325168912,0.2369192
325212903,0.3416571
325259801,0.7035065
325304715,0.7832685
325359383,0.9766811
325405498,1.00488
325497826,1.232131
325544231,1.236965
325586950,1.332085
325632501,1.112085
325678436,1.22488
325724302,1.657679
325768354,1.247489
325814223,1.386065
325862097,1.508579
325908121,1.414264
325952050,1.463461
325996546,1.437629
326042590,1.425544
326089937,1.348199
326138856,1.537583
326234337,1.511801
326280643,1.611705
326327002,1.533555
326373139,1.767251
326419458,1.627013
326463724,1.593175
326510672,2.544124
326555857,1.748721
326602271,1.857537
326646984,1.792227
326698247,1.937299
326744756,1.840568
326789719,1.751943
326836736,1.876068
326883496,1.834928
326981396,1.764028
327025859,1.625402
327079788,1.761611
327127021,1.678627
327174619,1.874456
327224139,1.581089
327270606,1.891376
327320125,1.257963
327368621,1.643932
327417471,1.822843
327462820,1.755166
327513336,1.78981
327563118,1.67621
327612163,1.695546
327659450,1.755166
327754777,1.67621
327803860,1.569004
327853076,1.637487
327903869,1.615734
327953289,1.799478
328002530,1.593175
328053850,2.671421
328103701,1.28455
328153476,1.821231
328200222,1.851847
328249906,1.764028
328300236,1.830899
328349375,1.722133
328398036,1.814786
328453686,1.781753
328553793,1.685878
328602710,1.584312
328653194,1.699574
328704174,1.726162
328757893,1.610094
328809119,2.213696
328866599,1.361895
328917689,1.67621
328968773,1.595592
329020184,1.632653
329069475,1.59962
329121546,1.532749
329174944,1.639904
329224635,1.516635
329273152,1.610094
329374802,1.613317
329428102,1.567393
329480458,1.731801
329530834,1.560948
329583653,2.531234
329636032,1.506967
329689854,1.668153
329745404,1.581089
329799157,1.677015
329850200,1.715688
329904674,1.582701
329958130,1.698769
330011090,1.693934
330059855,1.601231
330113367,1.699574
330213579,1.808341
330266626,1.652845
330319498,1.602037
330380965,1.65929
330433840,1.769668
330485176,1.682655
330539006,1.755166
330594649,1.815592
330650011,1.620568
330701089,1.299052
330763044,1.167677
330816995,1.187013
330868341,1.144312
330922758,1.032323
330975770,1.036352
331079586,0.3811353
331135097,1.239432
331192552,0.01127947
331246674,0.01127947
331302408,0.01047379
331359181,0.01208515
331415207,0.01289082
331469406,0.008862439
331523667,0.01208515
331578533,0.3956375
331634889,0.7897139
331692980,1.080664
331751774,1.547251
331806262,1.37398
331863193,2.249146
331970682,2.091234
332025289,2.082371
332078658,2.137157
332134845,2.166162
332192559,2.137963
332248271,2.112987
332303465,1.981611
332366638,1.941328
332423712,1.841373
332477535,1.886541
332532982,1.858343
332588803,3.208153
332649146,2.095262
332706964,2.0864
332773352,2.037203
332879554,1.465878
332937342,1.473129
332995326,1.530332
333048981,1.569004
333106073,1.524692
333164599,1.631847
333221796,1.31436
333277084,1.487631
333335779,1.07019
333395572,1.469906
333454863,1.59962
333512303,1.693129
333569975,1.558531
333627241,1.577867
333687377,1.563365
333797125,1.429572
333856007,1.435212
333913734,1.672987
333971492,1.655262
334030012,2.105736
334088495,1.710048
334144747,1.968721
334204989,2.025923
334264832,1.682655
334352956,0.5874388
334399538,0.03625543
334439306,0.01047379
334476624,0.01208515
334515354,0.01127947
334554583,0.01289082
334644473,0.3682445
334683308,0.4061112
334729861,0.5415153
334771088,0.8735546
334811211,0.6019409
334851519,1.146729
334890831,1.410236
334931266,1.574644
334973937,1.669764
335015354,1.749526
335053361,1.861565
335094686,1.728579
335136431,1.801895
335177753,1.834122
335216560,1.766445
335310149,1.864788
335351573,1.937299
335394395,1.906683
335438774,2.056539
335481900,1.601231
335522095,1.505356
335565709,2.623887
335607694,1.236965
335647953,1.335308
335688703,1.344976
335730568,1.304692
335773089,1.261186
335813972,1.228908
335861420,1.261991
335903262,1.431989
335993959,1.499716
336036470,1.503745
336077825,1.542417
336123545,1.793033
336166954,1.912323
336217075,1.930854
336261683,1.987251
336304788,1.910712
336348325,2.142797
336390396,1.109668
336435431,1.800284
336479254,1.833316
336523671,1.853458
336565210,1.805923
336609458,1.673793
336702360,1.520664
336744595,1.564976
336788776,1.520664
336831115,1.440851
336875203,1.397345
336921295,1.554502
336966873,1.624596
337013108,1.527915
337056574,1.672181
337103162,1.652845
337149869,1.551279
337195053,1.992085
337239156,1.705214
337285568,1.902655
337331372,1.801895
337425273,1.943745
337475280,1.685072
337521441,1.847013
337565846,1.846207
337611840,1.51019
337658337,1.477157
337707411,1.565782
337752689,1.453793
337805855,1.652039
337853519,1.48602
337899967,1.710854
337946623,1.492465
337992061,1.299858
338040291,0.7558755
338087780,1.408624
338184970,1.556919
338230128,1.454598
338279420,1.530332
338327969,1.485214
338375790,1.490048
338423657,1.677015
338469763,1.532749
338517713,1.600426
338566430,1.642321
338618294,1.610899
338667474,1.619762
338713816,1.652845
338762152,1.742275
338812029,1.500522
338860237,3.236351
338955281,1.677821
339004153,1.826871
339053091,1.669764
339101926,1.830899
339156885,1.618151
339204116,1.712465
339251552,1.549668
339300353,1.719716
339349570,1.535972
339402900,1.719716
339452840,1.567393
339510690,1.560142
339560461,1.760806
339610044,1.634264
339660145,1.666541
339756493,1.290996
339806598,1.664124
339858815,1.809952
339909832,1.627819
339959150,1.799478
340011753,1.502133
340063813,1.608482
340114048,1.459432
340162322,1.466683
340211925,1.236965
340263169,1.361895
340314139,1.280522
340367574,1.25474
340419160,1.527915
340470799,1.228103
340570879,0.9694301
340623174,1.544834
340674082,1.571421
340723246,1.680238
340775538,1.631041
340827682,1.429572
340879672,1.548057
340937182,1.583507
340988038,1.398956
341040640,1.552085
341093145,1.498911
341147530,1.469906
341202962,1.677821
341253409,1.508579
341313823,1.525498
341418696,1.856732
341471518,1.762417
341524649,1.840568
341575436,1.904266
341630058,1.685072
341682665,1.808341
341735828,1.840568
341786523,1.651234
341842026,1.722133
341895618,1.751138
341949743,1.744692
342002061,1.677821
342056592,1.633458
342110777,2.04526
342167437,1.595592
342271632,1.699574
342325557,1.610094
342380059,1.663319
342435912,1.66493
342492460,1.56417
342546698,1.411847
342597729,1.608482
342653494,1.612511
342709179,1.543223
342764828,1.751943
342825429,1.502939
342881174,3.116306
342937126,1.731801
342992663,1.735024
343048696,1.652845
343154169,1.75436
343210424,1.56981
343272740,1.485214
343333016,1.34981
343389323,1.228908
343447290,1.236965
343502392,1.319194
343560556,1.543223
343618984,1.410236
343677885,3.012323
343731550,1.537583
343788827,1.553697
343848645,1.589146
343906149,1.570616
343961864,1.586729
344064687,1.586729
344121237,1.556919
344180255,1.573838
344240747,1.503745
344298823,1.706825
344354034,1.671376
344411893,1.51019
344468951,0.884834
344526089,1.498105
344581095,1.554502
344637779,1.652845
344696178,1.712465
344754768,1.614122
344818181,1.523081
344876916,1.530332
344983425,1.40943
345042184,1.470712
345101457,1.610094
345163418,1.413458
345220534,2.149242
345285799,1.506162
345347695,1.548057
345405240,1.452181
345465893,1.490048
345523848,1.411847
345582332,1.423127
345642889,1.430378
345703188,1.435212
345761885,1.444124
345853342,1.735024
345939392,1.494076
345977565,1.513413
346015842,3.184788
346055645,1.587535
346098129,1.725356
346143394,1.696352
346184508,1.721328
346222102,1.653651
346262182,1.646349
346301435,1.603648
346340649,1.613317
346376894,1.736635
346416169,1.722939
346457077,1.655262
346497940,1.611705
346593278,1.734219
346636000,1.832511
346675393,1.871234
346714778,1.685072
346754275,1.580284
346799613,1.236965
346841114,1.568199
346890182,1.833316
346934028,1.800284
346976999,1.704408
347018757,1.67621
347059425,1.573033
347102698,1.548862
347146640,1.663319
347189272,1.701991
347275425,1.557725
347319076,1.481991
347361817,1.495688
347402693,1.63507
347443667,1.560142
347486336,1.556113
347530095,2.142797
347578160,1.113696
347620405,1.595592
347662885,1.65929
347707518,1.826871
347752256,1.805118
347795516,1.70602
347837429,1.558531
347879479,1.547251
347970818,1.681044
348014618,1.564976
348064278,1.554502
348108199,1.665736
348150381,1.685878
348194300,1.772085
348239860,1.386871
348287487,1.505356
348328955,1.863983
348381572,1.563365
348427530,1.793838
348472333,1.807535
348517287,1.715688
348561077,1.722133
348607444,1.783365
348700882,1.614122
348746742,1.742275
348790962,1.684266
348837561,1.516635
348883318,1.590758
348927459,1.805923
348971841,1.645544
349017995,1.427961
349065179,3.059858
349114251,1.460238
349159916,1.552891
349203750,1.695546
349250102,1.755972
349297849,1.581895
349344137,1.673793
349436774,1.567393
349482017,1.614928
349528995,1.680238
349575829,1.523886
349629051,1.720522
349674545,1.683461
349720282,1.637487
349767508,1.650428
349814848,2.457061
349866358,1.554502
349913971,1.613317
349969705,1.781753
350020036,1.683461
350067530,1.815592
350115377,1.48602
350209718,1.662513
350257338,1.490854
350305799,1.663319
350354421,1.487631
350401624,1.590758
350451509,1.704408
350500303,1.490048
350547316,1.794644
350594709,1.078247
350643432,1.737441
350694831,1.635875
350746679,1.857537
350796767,1.710048
350844777,1.81962
350895465,1.630236
350992082,1.631847
351041037,1.671376
351088555,1.690712
351137157,1.645544
351189099,1.701991
351240967,1.560142
351297180,2.492561
351346011,1.753555
351394514,1.657679
351444821,1.90185
351495550,1.709242
351549112,1.794644
351597728,1.628624
351656976,1.660096
351709008,1.695546
351807878,1.60526
351858269,1.519052
351908223,1.739052
351959150,1.486825
352012469,1.387677
352064591,1.116919
352112990,1.588341
352165940,1.808341
352216240,1.716493
352264585,1.868011
352315059,1.589952
352368762,1.654456
352421946,1.745498
352478052,1.587535
352531631,1.497299
352633403,1.50455
352687528,1.634264
352740573,1.558531
352792139,2.887393
352842680,1.689906
352895965,1.592369
352948997,1.677821
353002183,1.817203
353060230,1.741469
353111777,1.530332
353163312,1.729384
353216509,1.56981
353270312,1.516635
353326656,1.628624
353380539,1.762417
353491041,1.478769
353547578,2.231421
353600305,1.734219
353655734,1.701991
353708401,1.743081
353762381,1.871234
353816714,1.747915
353871458,1.624596
353924753,1.776919
353978994,1.743886
354032005,1.548862
354085617,1.658485
354139606,1.721328
354194917,1.792227
354251549,1.515024
354357841,1.639904
354416019,1.709242
354470103,1.678627
354525803,1.738247
354580436,1.78981
354636265,1.689906
354689022,1.639904
354745524,1.691517
354801540,1.72455
354858104,1.631041
354920616,1.632653
354977467,1.794644
355032559,1.408624
355087294,2.36038
355144219,1.543223
355254773,1.589146
355310452,1.495688
355375433,1.544028
355433514,1.509384
355489568,1.461849
355548333,1.451376
355604012,1.536777
355662588,1.606871
355722086,1.730996
355780433,1.614122
355835174,1.541611
355894261,1.317583
355952658,1.671376
356008944,1.668153
356065699,1.734219
356173350,1.620568
356234024,1.70038
356293704,1.651234
356353270,1.585924
356409263,1.508579
356470697,1.663319
356528510,1.445736
356587262,1.415876
356643671,1.116919
356703169,1.758389
356762609,1.802701
356821926,1.764834
356885365,1.630236
356943171,1.686683
357002763,1.732607
357109995,1.512607
357168798,1.476351
357231323,1.59398
357290258,1.560948
357358471,1.568199
357451007,1.567393
357492249,1.667347
357530427,1.611705
357570008,1.59398
357611560,1.627819
357652009,1.628624
357688838,1.506162
357730285,1.553697
357768796,1.527915
357807448,1.518247
357893921,1.67621
357934205,1.697157
357974964,1.731801
358016049,1.882513
358058025,1.808341
358097153,1.70038
358139645,1.811563
358181090,1.04602
358221039,1.740664
358258871,1.848624
358300535,1.798673
358341973,1.761611
358383512,1.709242
358429975,1.619762
358471697,1.529526
358559647,1.521469
358601355,1.442463
358644242,1.330474
358688810,1.361089
358729868,1.405402
358778901,1.672987
358822577,1.369952
358866425,1.389288
358907451,2.819716
358951207,1.259574
358994041,1.756777
359037039,1.838956
359078779,1.852653
359122542,1.738247
359163989,1.737441
359256751,1.81962
359297503,1.818009
359340943,1.654456
359385400,1.579478
359431737,1.735024
359474675,1.792227
359516641,1.91474
359560169,1.696352
359603577,1.544028
359647174,2.456255
359687867,1.142701
359732102,1.844596
359775484,1.894598
359819265,1.871234
359870114,1.852653
359963045,1.644738
360006265,1.672181
360051264,1.753555
360096173,1.714882
360144170,1.508579
360189542,1.602037
360241874,1.586729
360287028,1.422321
360332324,1.556113
360376419,3.178343
360423258,1.435212
360469142,1.680238
360515600,1.827677
360560342,1.685072
360609025,1.701991
360704005,1.515024
360747663,1.598814
360792575,1.685878
360838967,1.558531
360887182,1.523081
360934135,1.660096
360980968,1.615734
361025124,1.490048
361073231,1.618956
361121368,3.024408
361167435,1.506162
361212330,1.781753
361259904,1.677821
361307438,1.732607
361355002,1.845402
361455418,1.748721
361500489,1.63507
361546509,1.600426
361593941,1.677015
361640850,1.495688
361690591,1.691517
361737373,1.772891
361794214,1.631041
361841905,1.418293
